signal
-0.105
-0.105
-0.105
-0.105
-0.105
-0.105
-0.105
-0.105
-0.125
-0.145
-0.15
-0.175
-0.195
-0.205
-0.2
-0.2
-0.195
-0.2
-0.2
-0.21
-0.21
-0.19
-0.19
-0.2
-0.215
-0.225
-0.225
-0.21
-0.21
-0.23
-0.245
-0.26
-0.255
-0.245
-0.23
-0.245
-0.28
-0.255
-0.165
-0.015
0.16
0.375
0.645
0.985
1.37
1.725
1.935
1.895
1.625
1.28
0.915
0.55
0.26
0.045
-0.11
-0.21
-0.255
-0.26
-0.235
-0.235
-0.27
-0.29
-0.305
-0.295
-0.295
-0.3
-0.33
-0.335
-0.325
-0.325
-0.315
-0.32
-0.33
-0.33
-0.325
-0.315
-0.32
-0.325
-0.325
-0.34
-0.325
-0.3
-0.3
-0.315
-0.32
-0.335
-0.33
-0.305
-0.3
-0.31
-0.325
-0.335
-0.315
-0.295
-0.31
-0.31
-0.325
-0.315
-0.3
-0.29
-0.275
-0.275
-0.285
-0.29
-0.275
-0.26
-0.245
-0.255
-0.255
-0.255
-0.23
-0.21
-0.18
-0.17
-0.17
-0.17
-0.165
-0.13
-0.11
-0.11
-0.11
-0.105
-0.095
-0.08
-0.05
-0.05
-0.05
-0.05
-0.04
-0.02
-0.015
-0.02
-0.045
-0.05
-0.05
-0.035
-0.045
-0.065
-0.105
-0.115
-0.12
-0.11
-0.115
-0.15
-0.18
-0.195
-0.195
-0.195
-0.195
-0.215
-0.245
-0.25
-0.245
-0.235
-0.235
-0.235
-0.26
-0.27
-0.255
-0.24
-0.245
-0.26
-0.285
-0.29
-0.265
-0.25
-0.255
-0.255
-0.27
-0.28
-0.26
-0.245
-0.245
-0.245
-0.27
-0.26
-0.24
-0.235
-0.24
-0.25
-0.255
-0.25
-0.225
-0.19
-0.19
-0.195
-0.195
-0.165
-0.13
-0.065
-0.02
-0.005
0.04
0.115
0.225
0.33
0.415
0.47
0.53
0.625
0.77
0.89
1.0
1.07
1.155
1.265
1.4
1.535
1.66
1.705
1.675
1.6
1.525
1.47
1.405
1.31
1.225
1.195
1.15
1.085
1.01
0.935
0.875
0.885
0.9
0.875
0.76
0.605
0.455
0.28
0.125
-0.07
-0.245
-0.4
-0.49
-0.51
-0.545
-0.595
-0.635
-0.655
-0.675
-0.685
-0.705
-0.72
-0.72
-0.735
-0.75
-0.765
-0.75
-0.77
-0.795
-0.795
-0.82
-0.82
-0.825
-0.855
-0.86
-0.88
-0.885
-0.905
-0.905
-0.905
-0.925
-0.94
-0.975
-0.98
-0.98
-0.965
-0.965
-0.995
-1.015
-1.02
-1.025
-1.03
-1.035
-1.035
-1.04
-1.035
-1.04
-0.995
-0.99
-1.0
-1.01
-0.995
-0.965
-0.91
-0.905
-0.905
-0.885
-0.85
-0.79
-0.745
-0.72
-0.715
-0.695
-0.665
-0.605
-0.565
-0.54
-0.53
-0.515
-0.475
-0.445
-0.415
-0.41
-0.41
-0.41
-0.395
-0.38
-0.355
-0.355
-0.385
-0.39
-0.39
-0.36
-0.34
-0.35
-0.365
-0.385
-0.385
-0.36
-0.345
-0.365
-0.36
-0.37
-0.36
-0.345
-0.34
-0.36
-0.37
-0.37
-0.355
-0.335
-0.33
-0.345
-0.35
-0.355
-0.335
-0.33
-0.32
-0.32
-0.325
-0.34
-0.32
-0.305
-0.305
-0.295
-0.29
-0.3
-0.3
-0.295
-0.29
-0.28
-0.295
-0.305
-0.3
-0.29
-0.28
-0.285
-0.28
-0.315
-0.285
-0.275
-0.265
-0.26
-0.275
-0.29
-0.28
-0.275
-0.265
-0.26
-0.27
-0.285
-0.28
-0.265
-0.255
-0.26
-0.27
-0.28
-0.28
-0.27
-0.26
-0.26
-0.255
-0.275
-0.29
-0.275
-0.25
-0.255
-0.26
-0.285
-0.29
-0.28
-0.26
-0.25
-0.285
-0.28
-0.28
-0.265
-0.245
-0.235
-0.265
-0.28
-0.28
-0.255
-0.235
-0.23
-0.25
-0.26
-0.26
-0.235
-0.235
-0.23
-0.25
-0.255
-0.255
-0.235
-0.22
-0.235
-0.245
-0.26
-0.255
-0.23
-0.21
-0.21
-0.23
-0.23
-0.21
-0.18
-0.15
-0.16
-0.17
-0.175
-0.135
-0.09
-0.065
-0.065
-0.095
-0.105
-0.095
-0.09
-0.07
-0.085
-0.125
-0.145
-0.15
-0.145
-0.165
-0.205
-0.245
-0.25
-0.235
-0.21
-0.22
-0.24
-0.255
-0.265
-0.255
-0.235
-0.25
-0.27
-0.29
-0.28
-0.245
-0.22
-0.235
-0.245
-0.26
-0.26
-0.25
-0.225
-0.225
-0.25
-0.27
-0.26
-0.2
-0.085
0.06
0.215
0.42
0.68
0.98
1.265
1.465
1.485
1.26
0.935
0.59
0.24
-0.03
-0.18
-0.255
-0.255
-0.27
-0.27
-0.275
-0.265
-0.27
-0.275
-0.285
-0.295
-0.305
-0.31
-0.31
-0.31
-0.315
-0.315
-0.32
-0.305
-0.295
-0.29
-0.3
-0.32
-0.295
-0.295
-0.295
-0.295
-0.295
-0.285
-0.28
-0.28
-0.26
-0.29
-0.27
-0.265
-0.25
-0.245
-0.245
-0.27
-0.255
-0.245
-0.225
-0.215
-0.215
-0.23
-0.225
-0.195
-0.195
-0.185
-0.195
-0.185
-0.17
-0.15
-0.13
-0.12
-0.125
-0.12
-0.11
-0.08
-0.06
-0.035
-0.03
-0.03
-0.015
0.005
0.04
0.06
0.07
0.06
0.065
0.09
0.125
0.15
0.12
0.125
0.12
0.14
0.17
0.175
0.16
0.145
0.125
0.14
0.145
0.14
0.11
0.07
0.04
0.03
0.04
0.02
-0.02
-0.06
-0.07
-0.08
-0.075
-0.085
-0.115
-0.16
-0.18
-0.165
-0.165
-0.165
-0.205
-0.235
-0.23
-0.22
-0.2
-0.21
-0.225
-0.255
-0.25
-0.225
-0.22
-0.21
-0.235
-0.25
-0.255
-0.23
-0.225
-0.225
-0.225
-0.255
-0.245
-0.23
-0.21
-0.2
-0.215
-0.235
-0.23
-0.22
-0.205
-0.2
-0.23
-0.245
-0.235
-0.215
-0.2
-0.195
-0.22
-0.25
-0.26
-0.23
-0.22
-0.21
-0.225
-0.245
-0.22
-0.2
-0.175
-0.16
-0.18
-0.18
-0.155
-0.115
-0.08
-0.06
-0.07
-0.08
-0.085
-0.065
-0.055
-0.06
-0.085
-0.115
-0.125
-0.135
-0.13
-0.14
-0.18
-0.22
-0.24
-0.245
-0.24
-0.235
-0.255
-0.26
-0.235
-0.195
-0.15
-0.1
-0.06
-0.035
0.035
0.115
0.2
0.29
0.35
0.415
0.49
0.57
0.63
0.67
0.69
0.745
0.83
0.94
1.025
1.06
1.085
1.19
1.37
1.51
1.605
1.66
1.69
1.765
1.855
1.935
1.945
1.735
1.335
0.93
0.61
0.33
0.1
-0.1
-0.265
-0.375
-0.41
-0.405
-0.415
-0.46
-0.495
-0.545
-0.545
-0.545
-0.545
-0.56
-0.59
-0.615
-0.61
-0.61
-0.605
-0.6
-0.63
-0.645
-0.63
-0.615
-0.615
-0.615
-0.66
-0.685
-0.675
-0.66
-0.65
-0.655
-0.69
-0.72
-0.725
-0.7
-0.7
-0.715
-0.745
-0.76
-0.765
-0.755
-0.755
-0.755
-0.79
-0.805
-0.795
-0.785
-0.77
-0.78
-0.8
-0.825
-0.83
-0.82
-0.8
-0.79
-0.805
-0.84
-0.83
-0.805
-0.785
-0.765
-0.765
-0.78
-0.76
-0.715
-0.67
-0.67
-0.675
-0.675
-0.635
-0.59
-0.555
-0.535
-0.545
-0.52
-0.495
-0.445
-0.415
-0.395
-0.415
-0.42
-0.38
-0.36
-0.35
-0.34
-0.35
-0.365
-0.37
-0.34
-0.31
-0.325
-0.355
-0.37
-0.355
-0.34
-0.33
-0.33
-0.37
-0.385
-0.36
-0.35
-0.34
-0.325
-0.355
-0.375
-0.35
-0.345
-0.33
-0.325
-0.36
-0.365
-0.35
-0.34
-0.32
-0.33
-0.35
-0.355
-0.355
-0.335
-0.325
-0.33
-0.345
-0.355
-0.355
-0.325
-0.305
-0.285
-0.295
-0.275
-0.245
-0.19
-0.15
-0.135
-0.11
-0.055
0.045
0.17
0.27
0.39
0.49
0.595
0.71
0.805
0.91
0.975
1.035
1.105
1.185
1.23
1.23
1.175
1.1
1.025
0.995
0.98
0.97
0.93
0.885
0.855
0.865
0.88
0.88
0.895
0.88
0.885
0.845
0.785
0.655
0.52
0.3
0.095
-0.075
-0.205
-0.305
-0.375
-0.43
-0.475
-0.49
-0.53
-0.575
-0.62
-0.665
-0.69
-0.71
-0.715
-0.725
-0.765
-0.805
-0.82
-0.81
-0.8
-0.81
-0.83
-0.845
-0.865
-0.88
-0.87
-0.88
-0.895
-0.92
-0.94
-0.945
-0.96
-0.97
-0.97
-1.01
-1.015
-1.015
-1.015
-1.02
-1.06
-1.08
-1.105
-1.095
-1.09
-1.11
-1.12
-1.14
-1.14
-1.14
-1.14
-1.125
-1.11
-1.11
-1.105
-1.1
-1.08
-1.05
-1.01
-0.985
-0.97
-0.96
-0.905
-0.865
-0.83
-0.81
-0.775
-0.735
-0.69
-0.655
-0.615
-0.6
-0.58
-0.575
-0.54
-0.51
-0.485
-0.485
-0.49
-0.48
-0.455
-0.455
-0.445
-0.445
-0.455
-0.465
-0.43
-0.42
-0.415
-0.44
-0.465
-0.44
-0.42
-0.4
-0.41
-0.41
-0.445
-0.435
-0.42
-0.39
-0.395
-0.395
-0.42
-0.425
-0.405
-0.395
-0.385
-0.385
-0.41
-0.395
-0.385
-0.365
-0.355
-0.375
-0.395
-0.39
-0.38
-0.35
-0.35
-0.365
-0.385
-0.39
-0.345
-0.34
-0.36
-0.38
-0.375
-0.34
-0.325
-0.335
-0.35
-0.355
-0.34
-0.32
-0.315
-0.315
-0.335
-0.34
-0.335
-0.31
-0.305
-0.32
-0.365
-0.38
-0.345
-0.34
-0.32
-0.33
-0.33
-0.345
-0.335
-0.32
-0.305
-0.305
-0.325
-0.325
-0.33
-0.29
-0.29
-0.295
-0.32
-0.33
-0.33
-0.295
-0.285
-0.305
-0.34
-0.335
-0.325
-0.325
-0.305
-0.315
-0.325
-0.335
-0.325
-0.3
-0.295
-0.31
-0.32
-0.33
-0.32
-0.31
-0.28
-0.295
-0.32
-0.335
-0.33
-0.32
-0.295
-0.285
-0.32
-0.32
-0.31
-0.3
-0.27
-0.275
-0.3
-0.31
-0.305
-0.285
-0.275
-0.275
-0.3
-0.315
-0.32
-0.285
-0.26
-0.28
-0.295
-0.295
-0.285
-0.28
-0.275
-0.285
-0.29
-0.3
-0.305
-0.29
-0.265
-0.29
-0.285
-0.295
-0.295
-0.28
-0.26
-0.265
-0.29
-0.315
-0.305
-0.285
-0.26
-0.285
-0.28
-0.3
-0.295
-0.27
-0.26
-0.26
-0.28
-0.29
-0.29
-0.285
-0.255
-0.25
-0.255
-0.265
-0.245
-0.225
-0.2
-0.185
-0.19
-0.19
-0.185
-0.155
-0.11
-0.1
-0.095
-0.105
-0.1
-0.095
-0.085
-0.08
-0.12
-0.15
-0.17
-0.145
-0.15
-0.155
-0.19
-0.2
-0.205
-0.235
-0.21
-0.21
-0.23
-0.245
-0.265
-0.245
-0.225
-0.225
-0.23
-0.26
-0.245
-0.23
-0.22
-0.225
-0.24
-0.245
-0.255
-0.235
-0.23
-0.22
-0.24
-0.25
-0.27
-0.275
-0.255
-0.205
-0.115
0.025
0.21
0.485
0.795
1.08
1.33
1.52
1.56
1.355
0.995
0.57
0.175
-0.095
-0.2
-0.22
-0.225
-0.22
-0.25
-0.255
-0.25
-0.22
-0.225
-0.24
-0.25
-0.265
-0.275
-0.25
-0.26
-0.285
-0.3
-0.29
-0.29
-0.265
-0.26
-0.265
-0.275
-0.28
-0.285
-0.255
-0.235
-0.265
-0.27
-0.275
-0.27
-0.25
-0.225
-0.22
-0.235
-0.24
-0.24
-0.23
-0.21
-0.205
-0.22
-0.21
-0.195
-0.19
-0.175
-0.16
-0.16
-0.165
-0.155
-0.13
-0.135
-0.125
-0.115
-0.11
-0.11
-0.08
-0.065
-0.05
-0.06
-0.05
-0.045
-0.005
0.015
0.02
0.025
0.015
0.035
0.065
0.105
0.115
0.105
0.095
0.125
0.14
0.17
0.165
0.155
0.15
0.155
0.18
0.195
0.215
0.2
0.205
0.205
0.21
0.215
0.22
0.185
0.175
0.17
0.17
0.18
0.16
0.13
0.1
0.07
0.05
0.035
0.025
0.01
-0.015
-0.035
-0.045
-0.06
-0.065
-0.08
-0.09
-0.09
-0.095
-0.085
-0.09
-0.095
-0.11
-0.11
-0.105
-0.09
-0.095
-0.12
-0.12
-0.125
-0.105
-0.1
-0.105
-0.105
-0.1
-0.11
-0.1
-0.1
-0.11
-0.115
-0.12
-0.12
-0.11
-0.09
-0.1
-0.115
-0.115
-0.105
-0.095
-0.09
-0.09
-0.1
-0.105
-0.09
-0.1
-0.07
-0.075
-0.09
-0.09
-0.08
-0.045
-0.05
-0.035
-0.03
-0.03
-0.025
0.025
0.035
0.06
0.05
0.045
0.065
0.08
0.09
0.1
0.095
0.11
0.15
0.195
0.225
0.275
0.315
0.36
0.45
0.555
0.625
0.675
0.71
0.78
0.85
0.935
1.045
1.13
1.195
1.245
1.305
1.415
1.535
1.635
1.645
1.61
1.56
1.53
1.5
1.45
1.37
1.305
1.255
1.235
1.185
1.145
1.085
1.04
1.01
1.005
0.995
0.96
0.89
0.785
0.68
0.56
0.395
0.19
-0.025
-0.185
-0.29
-0.36
-0.38
-0.43
-0.48
-0.5
-0.51
-0.515
-0.53
-0.55
-0.58
-0.59
-0.595
-0.585
-0.595
-0.605
-0.615
-0.63
-0.63
-0.63
-0.63
-0.645
-0.675
-0.695
-0.7
-0.695
-0.71
-0.735
-0.75
-0.76
-0.77
-0.76
-0.765
-0.77
-0.805
-0.825
-0.825
-0.815
-0.82
-0.83
-0.865
-0.87
-0.885
-0.88
-0.88
-0.875
-0.885
-0.9
-0.885
-0.89
-0.885
-0.895
-0.89
-0.89
-0.88
-0.85
-0.835
-0.815
-0.825
-0.81
-0.785
-0.745
-0.705
-0.69
-0.68
-0.67
-0.615
-0.57
-0.52
-0.49
-0.47
-0.45
-0.41
-0.38
-0.345
-0.32
-0.32
-0.305
-0.28
-0.24
-0.225
-0.215
-0.23
-0.225
-0.225
-0.22
-0.2
-0.19
-0.215
-0.225
-0.225
-0.2
-0.205
-0.2
-0.215
-0.235
-0.22
-0.2
-0.19
-0.195
-0.225
-0.22
-0.215
-0.21
-0.205
-0.205
-0.225
-0.24
-0.225
-0.215
-0.21
-0.215
-0.23
-0.25
-0.24
-0.205
-0.2
-0.2
-0.21
-0.22
-0.22
-0.2
-0.2
-0.195
-0.2
-0.215
-0.215
-0.185
-0.185
-0.18
-0.19
-0.2
-0.19
-0.17
-0.16
-0.17
-0.175
-0.185
-0.18
-0.16
-0.15
-0.145
-0.165
-0.17
-0.165
-0.15
-0.14
-0.14
-0.13
-0.125
-0.11
-0.075
-0.035
0.005
0.035
0.07
0.135
0.205
0.265
0.33
0.39
0.465
0.545
0.645
0.755
0.845
0.905
0.97
1.05
1.145
1.26
1.34
1.4
1.455
1.535
1.645
1.69
1.645
1.58
1.49
1.435
1.395
1.355
1.32
1.27
1.225
1.18
1.175
1.165
1.145
1.115
1.08
1.085
1.105
1.1
1.045
0.92
0.79
0.625
0.43
0.225
0.015
-0.135
-0.25
-0.34
-0.38
-0.405
-0.44
-0.48
-0.505
-0.52
-0.525
-0.53
-0.545
-0.575
-0.6
-0.615
-0.605
-0.6
-0.62
-0.65
-0.67
-0.67
-0.67
-0.675
-0.67
-0.705
-0.71
-0.73
-0.73
-0.725
-0.75
-0.775
-0.79
-0.805
-0.79
-0.8
-0.805
-0.825
-0.835
-0.845
-0.85
-0.845
-0.865
-0.88
-0.885
-0.89
-0.88
-0.895
-0.905
-0.92
-0.935
-0.92
-0.9
-0.9
-0.89
-0.905
-0.905
-0.9
-0.875
-0.85
-0.815
-0.81
-0.79
-0.76
-0.74
-0.685
-0.645
-0.63
-0.6
-0.56
-0.505
-0.465
-0.46
-0.42
-0.415
-0.365
-0.305
-0.285
-0.275
-0.27
-0.255
-0.24
-0.2
-0.185
-0.17
-0.18
-0.185
-0.175
-0.16
-0.155
-0.15
-0.18
-0.185
-0.175
-0.165
-0.16
-0.16
-0.18
-0.19
-0.185
-0.165
-0.155
-0.165
-0.2
-0.195
-0.19
-0.16
-0.145
-0.16
-0.175
-0.175
-0.18
-0.15
-0.155
-0.15
-0.16
-0.17
-0.165
-0.145
-0.135
-0.15
-0.16
-0.165
-0.145
-0.135
-0.12
-0.125
-0.13
-0.15
-0.135
-0.115
-0.11
-0.115
-0.14
-0.15
-0.13
-0.12
-0.12
-0.115
-0.14
-0.15
-0.135
-0.115
-0.105
-0.105
-0.135
-0.125
-0.13
-0.12
-0.095
-0.105
-0.12
-0.13
-0.12
-0.105
-0.09
-0.105
-0.115
-0.115
-0.11
-0.1
-0.09
-0.105
-0.11
-0.125
-0.115
-0.095
-0.085
-0.085
-0.095
-0.12
-0.11
-0.1
-0.085
-0.08
-0.105
-0.105
-0.115
-0.095
-0.085
-0.09
-0.11
-0.115
-0.105
-0.085
-0.085
-0.09
-0.115
-0.12
-0.105
-0.09
-0.075
-0.075
-0.075
-0.075
-0.065
-0.03
-0.03
-0.015
-0.02
-0.025
-0.005
0.03
0.065
0.08
0.065
0.055
0.065
0.08
0.08
0.055
0.025
0.0
0.0
0.005
-0.005
-0.02
-0.055
-0.07
-0.075
-0.07
-0.075
-0.09
-0.11
-0.12
-0.12
-0.12
-0.11
-0.12
-0.125
-0.12
-0.11
-0.11
-0.105
-0.115
-0.12
-0.115
-0.1
-0.085
-0.085
-0.105
-0.105
-0.1
-0.09
-0.1
-0.095
-0.06
-0.005
0.11
0.285
0.49
0.725
0.97
1.21
1.43
1.63
1.71
1.57
1.235
0.84
0.495
0.23
0.09
0.015
-0.055
-0.12
-0.16
-0.14
-0.1
-0.09
-0.11
-0.135
-0.15
-0.145
-0.14
-0.135
-0.155
-0.18
-0.165
-0.16
-0.155
-0.145
-0.155
-0.18
-0.175
-0.155
-0.15
-0.145
-0.145
-0.17
-0.155
-0.14
-0.135
-0.115
-0.125
-0.135
-0.13
-0.125
-0.105
-0.09
-0.09
-0.09
-0.095
-0.09
-0.07
-0.03
-0.05
-0.04
-0.045
-0.03
0.0
0.02
0.02
0.015
0.01
0.035
0.08
0.11
0.115
0.105
0.09
0.115
0.165
0.18
0.2
0.205
0.195
0.205
0.245
0.27
0.285
0.29
0.29
0.31
0.325
0.34
0.335
0.315
0.33
0.325
0.345
0.345
0.32
0.265
0.25
0.235
0.235
0.21
0.18
0.155
0.12
0.11
0.105
0.08
0.04
0.005
-0.01
-0.015
-0.01
-0.02
-0.035
-0.06
-0.09
-0.075
-0.055
-0.045
-0.065
-0.085
-0.095
-0.08
-0.07
-0.07
-0.07
-0.09
-0.095
-0.095
-0.085
-0.075
-0.08
-0.09
-0.095
-0.09
-0.085
-0.07
-0.095
-0.095
-0.095
-0.075
-0.07
-0.055
-0.065
-0.075
-0.08
-0.065
-0.045
-0.05
-0.06
-0.07
-0.07
-0.075
-0.065
-0.055
-0.065
-0.075
-0.07
-0.065
-0.055
-0.09
-0.07
-0.06
-0.055
-0.03
-0.01
0.005
0.0
0.0
0.015
0.03
0.07
0.09
0.095
0.08
0.08
0.075
0.08
0.075
0.07
0.05
0.045
0.05
0.06
0.07
0.08
0.09
0.105
0.155
0.205
0.26
0.31
0.35
0.41
0.49
0.58
0.645
0.71
0.755
0.815
0.88
0.965
1.055
1.125
1.175
1.24
1.35
1.465
1.545
1.57
1.53
1.48
1.43
1.385
1.35
1.325
1.315
1.33
1.34
1.37
1.37
1.365
1.37
1.375
1.385
1.38
1.315
1.2
1.02
0.795
0.56
0.315
0.09
-0.09
-0.235
-0.335
-0.38
-0.4
-0.415
-0.455
-0.485
-0.51
-0.52
-0.52
-0.52
-0.535
-0.57
-0.585
-0.58
-0.57
-0.565
-0.595
-0.61
-0.625
-0.615
-0.62
-0.63
-0.65
-0.675
-0.685
-0.67
-0.665
-0.68
-0.72
-0.75
-0.75
-0.745
-0.735
-0.74
-0.765
-0.78
-0.795
-0.8
-0.785
-0.795
-0.805
-0.84
-0.865
-0.86
-0.84
-0.83
-0.845
-0.865
-0.88
-0.86
-0.85
-0.835
-0.84
-0.855
-0.855
-0.84
-0.825
-0.795
-0.8
-0.795
-0.78
-0.755
-0.725
-0.7
-0.675
-0.66
-0.64
-0.595
-0.535
-0.495
-0.485
-0.47
-0.465
-0.405
-0.36
-0.31
-0.3
-0.3
-0.275
-0.245
-0.205
-0.195
-0.205
-0.215
-0.22
-0.21
-0.185
-0.175
-0.185
-0.19
-0.21
-0.215
-0.185
-0.18
-0.175
-0.205
-0.2
-0.195
-0.175
-0.175
-0.175
-0.2
-0.205
-0.2
-0.19
-0.175
-0.195
-0.205
-0.205
-0.2
-0.18
-0.165
-0.165
-0.18
-0.195
-0.18
-0.17
-0.145
-0.165
-0.17
-0.195
-0.19
-0.16
-0.14
-0.145
-0.175
-0.17
-0.155
-0.14
-0.13
-0.13
-0.14
-0.125
-0.08
-0.06
-0.01
0.005
0.02
0.05
0.095
0.16
0.225
0.295
0.37
0.445
0.52
0.62
0.705
0.77
0.835
0.93
1.01
1.095
1.155
1.205
1.27
1.355
1.445
1.49
1.49
1.41
1.35
1.29
1.26
1.235
1.195
1.155
1.115
1.075
1.06
1.075
1.085
1.1
1.115
1.15
1.17
1.12
1.04
0.915
0.745
0.555
0.355
0.175
0.005
-0.105
-0.21
-0.265
-0.31
-0.335
-0.385
-0.43
-0.465
-0.49
-0.5
-0.505
-0.52
-0.545
-0.58
-0.585
-0.59
-0.595
-0.6
-0.62
-0.655
-0.645
-0.65
-0.64
-0.65
-0.675
-0.705
-0.73
-0.73
-0.72
-0.725
-0.755
-0.78
-0.8
-0.795
-0.785
-0.79
-0.82
-0.835
-0.855
-0.86
-0.855
-0.865
-0.89
-0.895
-0.9
-0.89
-0.87
-0.875
-0.88
-0.88
-0.885
-0.87
-0.84
-0.83
-0.825
-0.825
-0.8
-0.765
-0.745
-0.705
-0.695
-0.69
-0.645
-0.62
-0.58
-0.55
-0.535
-0.515
-0.475
-0.44
-0.4
-0.375
-0.355
-0.37
-0.345
-0.305
-0.275
-0.25
-0.255
-0.245
-0.25
-0.25
-0.225
-0.23
-0.245
-0.24
-0.245
-0.225
-0.205
-0.22
-0.225
-0.225
-0.235
-0.235
-0.21
-0.21
-0.23
-0.23
-0.24
-0.22
-0.21
-0.22
-0.215
-0.23
-0.22
-0.21
-0.185
-0.19
-0.21
-0.21
-0.215
-0.19
-0.17
-0.16
-0.175
-0.185
-0.21
-0.18
-0.16
-0.16
-0.17
-0.18
-0.185
-0.16
-0.145
-0.145
-0.15
-0.17
-0.165
-0.145
-0.125
-0.13
-0.13
-0.16
-0.145
-0.14
-0.125
-0.13
-0.14
-0.155
-0.155
-0.155
-0.13
-0.13
-0.135
-0.145
-0.15
-0.125
-0.11
-0.125
-0.15
-0.14
-0.145
-0.13
-0.125
-0.115
-0.12
-0.135
-0.155
-0.15
-0.13
-0.13
-0.14
-0.155
-0.145
-0.135
-0.125
-0.115
-0.135
-0.145
-0.155
-0.13
-0.11
-0.12
-0.125
-0.145
-0.14
-0.135
-0.11
-0.12
-0.135
-0.155
-0.145
-0.14
-0.13
-0.125
-0.13
-0.14
-0.135
-0.125
-0.105
-0.105
-0.12
-0.12
-0.125
-0.11
-0.105
-0.1
-0.12
-0.145
-0.14
-0.12
-0.095
-0.09
-0.115
-0.135
-0.13
-0.12
-0.115
-0.105
-0.12
-0.125
-0.125
-0.11
-0.09
-0.11
-0.12
-0.12
-0.11
-0.12
-0.11
-0.11
-0.115
-0.135
-0.125
-0.11
-0.095
-0.085
-0.09
-0.12
-0.095
-0.075
-0.065
-0.05
-0.06
-0.06
-0.045
-0.01
0.015
0.025
0.02
0.025
0.045
0.06
0.075
0.07
0.06
0.03
0.01
0.035
0.025
0.015
-0.02
-0.05
-0.065
-0.075
-0.065
-0.09
-0.115
-0.12
-0.135
-0.13
-0.12
-0.13
-0.135
-0.15
-0.14
-0.12
-0.105
-0.11
-0.12
-0.13
-0.135
-0.115
-0.105
-0.12
-0.15
-0.185
-0.18
-0.12
0.005
0.145
0.315
0.545
0.825
1.125
1.39
1.595
1.625
1.445
1.08
0.655
0.225
-0.085
-0.185
-0.18
-0.16
-0.145
-0.145
-0.145
-0.13
-0.15
-0.17
-0.175
-0.17
-0.16
-0.16
-0.18
-0.185
-0.18
-0.165
-0.14
-0.155
-0.17
-0.18
-0.17
-0.16
-0.15
-0.155
-0.165
-0.17
-0.165
-0.15
-0.14
-0.15
-0.165
-0.16
-0.155
-0.14
-0.115
-0.125
-0.13
-0.135
-0.13
-0.095
-0.095
-0.105
-0.1
-0.09
-0.075
-0.045
-0.035
-0.05
-0.04
-0.04
-0.02
0.01
0.01
0.025
0.02
0.045
0.055
0.085
0.1
0.1
0.095
0.105
0.14
0.16
0.17
0.17
0.16
0.16
0.17
0.215
0.235
0.225
0.23
0.23
0.245
0.255
0.265
0.255
0.25
0.23
0.225
0.215
0.215
0.195
0.155
0.125
0.12
0.1
0.095
0.075
0.05
0.02
0.0
-0.01
-0.015
-0.03
-0.075
-0.095
-0.11
-0.09
-0.085
-0.115
-0.12
-0.125
-0.14
-0.12
-0.135
-0.15
-0.155
-0.165
-0.14
-0.13
-0.12
-0.125
-0.145
-0.155
-0.145
-0.125
-0.13
-0.12
-0.13
-0.135
-0.135
-0.125
-0.11
-0.135
-0.145
-0.145
-0.15
-0.125
-0.12
-0.115
-0.13
-0.145
-0.14
-0.12
-0.11
-0.11
-0.125
-0.105
-0.09
-0.06
-0.04
-0.04
-0.04
-0.035
0.0
0.04
0.055
0.04
0.02
0.005
0.01
0.025
0.035
0.03
0.0
0.005
0.045
0.075
0.11
0.11
0.13
0.165
0.24
0.33
0.41
0.46
0.525
0.585
0.66
0.765
0.835
0.905
0.965
1.04
1.115
1.19
1.27
1.36
1.45
1.505
1.52
1.495
1.43
1.345
1.285
1.24
1.19
1.15
1.12
1.06
1.0
0.985
0.995
0.99
0.99
0.965
0.945
0.905
0.85
0.745
0.62
0.44
0.2
-0.01
-0.18
-0.31
-0.395
-0.46
-0.505
-0.525
-0.555
-0.54
-0.57
-0.595
-0.63
-0.635
-0.63
-0.63
-0.635
-0.655
-0.68
-0.695
-0.695
-0.69
-0.695
-0.72
-0.74
-0.76
-0.77
-0.77
-0.79
-0.795
-0.82
-0.825
-0.845
-0.84
-0.845
-0.855
-0.885
-0.895
-0.905
-0.89
-0.9
-0.925
-0.96
-0.96
-0.945
-0.96
-0.965
-0.97
-0.99
-0.99
-0.98
-0.965
-0.96
-0.96
-0.975
-0.965
-0.935
-0.91
-0.895
-0.895
-0.895
-0.87
-0.84
-0.785
-0.76
-0.745
-0.72
-0.69
-0.65
-0.605
-0.58
-0.54
-0.535
-0.505
-0.46
-0.42
-0.405
-0.4
-0.38
-0.375
-0.33
-0.325
-0.305
-0.305
-0.325
-0.32
-0.305
-0.285
-0.28
-0.305
-0.315
-0.325
-0.315
-0.285
-0.285
-0.295
-0.315
-0.315
-0.315
-0.29
-0.29
-0.295
-0.305
-0.315
-0.305
-0.3
-0.295
-0.3
-0.31
-0.32
-0.31
-0.295
-0.28
-0.28
-0.3
-0.305
-0.31
-0.28
-0.265
-0.26
-0.27
-0.28
-0.27
-0.24
-0.24
-0.24
-0.24
-0.25
-0.235
-0.225
-0.215
-0.22
-0.245
-0.25
-0.225
-0.2
-0.175
-0.17
-0.15
-0.125
-0.07
-0.02
0.01
0.055
0.095
0.135
0.245
0.355
0.45
0.515
0.595
0.665
0.765
0.86
0.95
1.06
1.145
1.23
1.355
1.49
1.56
1.59
1.535
1.455
1.39
1.33
1.28
1.245
1.195
1.16
1.125
1.095
1.055
1.03
0.985
0.975
1.0
1.025
0.985
0.9
0.77
0.62
0.455
0.255
0.05
-0.135
-0.32
-0.41
-0.46
-0.47
-0.49
-0.525
-0.565
-0.6
-0.615
-0.61
-0.625
-0.655
-0.685
-0.69
-0.685
-0.68
-0.685
-0.72
-0.745
-0.755
-0.745
-0.74
-0.76
-0.785
-0.815
-0.835
-0.84
-0.83
-0.845
-0.875
-0.9
-0.92
-0.915
-0.915
-0.925
-0.95
-0.97
-0.99
-0.99
-0.985
-0.975
-0.99
-1.02
-1.015
-0.985
-0.945
-0.925
-0.935
-0.925
-0.905
-0.845
-0.805
-0.76
-0.72
-0.715
-0.67
-0.62
-0.565
-0.525
-0.495
-0.47
-0.44
-0.395
-0.35
-0.335
-0.315
-0.31
-0.295
-0.275
-0.26
-0.245
-0.26
-0.27
-0.29
-0.26
-0.23
-0.225
-0.24
-0.255
-0.26
-0.255
-0.235
-0.225
-0.235
-0.26
-0.26
-0.25
-0.23
-0.26
-0.25
-0.265
-0.255
-0.25
-0.22
-0.225
-0.23
-0.245
-0.24
-0.215
-0.195
-0.195
-0.21
-0.235
-0.225
-0.205
-0.18
-0.185
-0.195
-0.21
-0.205
-0.18
-0.16
-0.165
-0.18
-0.19
-0.19
-0.17
-0.16
-0.155
-0.17
-0.18
-0.19
-0.175
-0.155
-0.15
-0.165
-0.185
-0.18
-0.165
-0.145
-0.14
-0.165
-0.165
-0.16
-0.165
-0.145
-0.14
-0.155
-0.165
-0.17
-0.145
-0.14
-0.135
-0.145
-0.15
-0.155
-0.135
-0.13
-0.135
-0.135
-0.155
-0.16
-0.15
-0.13
-0.14
-0.135
-0.16
-0.155
-0.145
-0.125
-0.12
-0.13
-0.15
-0.155
-0.125
-0.125
-0.145
-0.145
-0.145
-0.145
-0.135
-0.125
-0.135
-0.155
-0.14
-0.14
-0.125
-0.12
-0.115
-0.125
-0.145
-0.145
-0.135
-0.115
-0.105
-0.11
-0.105
-0.1
-0.08
-0.05
-0.045
-0.035
-0.025
-0.015
0.02
0.05
0.05
0.035
0.03
0.025
0.035
0.025
0.005
-0.02
-0.05
-0.05
-0.055
-0.055
-0.065
-0.09
-0.115
-0.125
-0.125
-0.125
-0.125
-0.14
-0.165
-0.145
-0.145
-0.135
-0.13
-0.145
-0.155
-0.14
-0.125
-0.115
-0.125
-0.14
-0.145
-0.145
-0.12
-0.115
-0.125
-0.155
-0.165
-0.15
-0.07
0.04
0.175
0.34
0.53
0.75
0.995
1.25
1.47
1.6
1.54
1.28
0.935
0.595
0.29
0.1
0.0
-0.07
-0.115
-0.145
-0.16
-0.165
-0.135
-0.13
-0.135
-0.135
-0.15
-0.175
-0.185
-0.185
-0.18
-0.165
-0.17
-0.205
-0.2
-0.195
-0.175
-0.18
-0.165
-0.18
-0.19
-0.195
-0.17
-0.15
-0.155
-0.165
-0.18
-0.185
-0.155
-0.15
-0.14
-0.14
-0.155
-0.155
-0.125
-0.1
-0.095
-0.105
-0.125
-0.14
-0.11
-0.075
-0.075
-0.09
-0.1
-0.085
-0.065
-0.03
-0.01
-0.04
-0.04
-0.055
-0.015
0.025
0.045
0.035
0.015
0.025
0.055
0.11
0.115
0.12
0.11
0.125
0.155
0.19
0.205
0.21
0.205
0.21
0.235
0.255
0.27
0.27
0.265
0.26
0.275
0.31
0.32
0.315
0.295
0.275
0.275
0.29
0.29
0.24
0.205
0.17
0.17
0.175
0.155
0.14
0.08
0.06
0.05
0.055
0.02
0.03
-0.02
-0.035
-0.045
-0.03
-0.035
-0.055
-0.08
-0.12
-0.14
-0.11
-0.105
-0.105
-0.125
-0.125
-0.125
-0.11
-0.11
-0.105
-0.12
-0.135
-0.135
-0.12
-0.115
-0.1
-0.125
-0.13
-0.125
-0.12
-0.105
-0.095
-0.125
-0.115
-0.1
-0.08
-0.08
-0.105
-0.12
-0.13
-0.13
-0.115
-0.105
-0.095
-0.11
-0.1
-0.105
-0.095
-0.1
-0.11
-0.11
-0.12
-0.105
-0.11
-0.11
-0.11
-0.12
-0.09
-0.07
-0.06
-0.05
-0.05
-0.045
-0.04
-0.015
0.005
0.02
0.025
0.025
0.025
0.045
0.065
0.055
0.02
0.005
0.01
0.03
0.045
0.045
0.035
0.025
0.05
0.07
0.125
0.16
0.17
0.205
0.27
0.35
0.435
0.515
0.57
0.615
0.68
0.755
0.83
0.9
0.965
1.04
1.115
1.185
1.245
1.34
1.42
1.495
1.55
1.555
1.545
1.505
1.445
1.39
1.33
1.295
1.285
1.245
1.22
1.17
1.14
1.145
1.16
1.155
1.14
1.125
1.09
1.03
0.96
0.865
0.715
0.52
0.295
0.095
-0.09
-0.215
-0.325
-0.395
-0.445
-0.46
-0.455
-0.465
-0.495
-0.54
-0.575
-0.58
-0.58
-0.575
-0.58
-0.605
-0.61
-0.62
-0.62
-0.625
-0.65
-0.67
-0.67
-0.655
-0.635
-0.665
-0.685
-0.69
-0.7
-0.695
-0.69
-0.7
-0.725
-0.74
-0.745
-0.75
-0.75
-0.77
-0.8
-0.825
-0.825
-0.815
-0.81
-0.81
-0.83
-0.86
-0.865
-0.86
-0.86
-0.85
-0.865
-0.89
-0.91
-0.88
-0.855
-0.83
-0.86
-0.86
-0.87
-0.845
-0.815
-0.805
-0.795
-0.805
-0.795
-0.775
-0.735
-0.715
-0.695
-0.68
-0.66
-0.645
-0.6
-0.565
-0.53
-0.505
-0.495
-0.465
-0.425
-0.385
-0.345
-0.345
-0.315
-0.29
-0.25
-0.235
-0.235
-0.24
-0.235
-0.225
-0.2
-0.195
-0.195
-0.21
-0.205
-0.205
-0.195
-0.18
-0.195
-0.205
-0.21
-0.205
-0.19
-0.18
-0.175
-0.185
-0.19
-0.18
-0.175
-0.175
-0.175
-0.18
-0.17
-0.16
-0.175
-0.18
-0.19
-0.19
-0.175
-0.17
-0.17
-0.165
-0.18
-0.185
-0.18
-0.17
-0.165
-0.17
-0.165
-0.185
-0.175
-0.17
-0.165
-0.17
-0.175
-0.17
-0.175
-0.155
-0.135
-0.12
-0.1
-0.105
-0.08
-0.035
0.015
0.06
0.085
0.12
0.165
0.235
0.32
0.39
0.475
0.545
0.62
0.71
0.805
0.885
0.94
1.025
1.13
1.225
1.305
1.385
1.455
1.55
1.63
1.67
1.66
1.62
1.54
1.48
1.42
1.355
1.315
1.235
1.17
1.105
1.055
1.035
1.035
1.02
1.0
0.995
0.965
0.885
0.76
0.595
0.4
0.19
0.01
-0.125
-0.225
-0.305
-0.37
-0.415
-0.445
-0.455
-0.475
-0.485
-0.51
-0.52
-0.535
-0.54
-0.545
-0.56
-0.57
-0.595
-0.6
-0.6
-0.605
-0.605
-0.63
-0.645
-0.65
-0.645
-0.65
-0.67
-0.68
-0.705
-0.69
-0.695
-0.7
-0.71
-0.735
-0.765
-0.77
-0.78
-0.77
-0.78
-0.805
-0.82
-0.825
-0.825
-0.825
-0.825
-0.85
-0.86
-0.86
-0.86
-0.85
-0.855
-0.87
-0.87
-0.875
-0.855
-0.825
-0.82
-0.83
-0.82
-0.795
-0.765
-0.74
-0.74
-0.73
-0.7
-0.675
-0.635
-0.58
-0.555
-0.55
-0.515
-0.48
-0.43
-0.375
-0.355
-0.35
-0.33
-0.31
-0.285
-0.24
-0.235
-0.235
-0.24
-0.225
-0.22
-0.18
-0.19
-0.205
-0.21
-0.215
-0.19
-0.185
-0.18
-0.195
-0.215
-0.2
-0.19
-0.185
-0.195
-0.225
-0.215
-0.205
-0.19
-0.17
-0.185
-0.215
-0.24
-0.225
-0.195
-0.165
-0.155
-0.185
-0.2
-0.195
-0.185
-0.17
-0.16
-0.18
-0.19
-0.18
-0.17
-0.15
-0.14
-0.17
-0.17
-0.155
-0.14
-0.125
-0.135
-0.135
-0.17
-0.16
-0.13
-0.11
-0.11
-0.135
-0.145
-0.145
-0.135
-0.12
-0.09
-0.11
-0.145
-0.135
-0.11
-0.09
-0.095
-0.105
-0.14
-0.135
-0.11
-0.095
-0.09
-0.105
-0.11
-0.115
-0.1
-0.085
-0.085
-0.11
-0.14
-0.14
-0.12
-0.09
-0.09
-0.1
-0.125
-0.13
-0.125
-0.1
-0.085
-0.105
-0.105
-0.125
-0.115
-0.09
-0.08
-0.09
-0.105
-0.115
-0.11
-0.09
-0.09
-0.095
-0.1
-0.125
-0.105
-0.075
-0.07
-0.085
-0.085
-0.105
-0.085
-0.07
-0.06
-0.065
-0.055
-0.055
-0.03
-0.01
0.005
0.0
0.015
0.025
0.04
0.07
0.085
0.09
0.09
0.085
0.08
0.085
0.085
0.055
0.045
0.035
0.025
0.02
-0.01
-0.025
-0.055
-0.06
-0.055
-0.05
-0.065
-0.08
-0.1
-0.11
-0.11
-0.105
-0.095
-0.1
-0.115
-0.11
-0.12
-0.09
-0.085
-0.095
-0.105
-0.1
-0.11
-0.105
-0.085
-0.1
-0.115
-0.14
-0.14
-0.07
0.055
0.19
0.35
0.535
0.8
1.105
1.39
1.625
1.72
1.62
1.325
0.955
0.58
0.245
0.0
-0.105
-0.13
-0.12
-0.105
-0.145
-0.135
-0.135
-0.11
-0.115
-0.115
-0.13
-0.14
-0.14
-0.135
-0.14
-0.15
-0.155
-0.16
-0.155
-0.15
-0.145
-0.14
-0.135
-0.15
-0.145
-0.145
-0.15
-0.13
-0.145
-0.155
-0.135
-0.135
-0.12
-0.11
-0.12
-0.13
-0.12
-0.1
-0.11
-0.095
-0.105
-0.095
-0.085
-0.07
-0.055
-0.035
-0.05
-0.05
-0.05
-0.04
-0.01
-0.005
0.01
0.015
0.015
0.03
0.045
0.055
0.065
0.075
0.08
0.085
0.12
0.14
0.14
0.16
0.17
0.185
0.22
0.215
0.23
0.24
0.23
0.245
0.265
0.265
0.285
0.275
0.28
0.27
0.295
0.285
0.27
0.255
0.255
0.27
0.25
0.215
0.21
0.175
0.165
0.14
0.14
0.11
0.085
0.07
0.035
0.03
0.005
0.0
-0.02
-0.055
-0.06
-0.085
-0.07
-0.075
-0.1
-0.105
-0.105
-0.105
-0.1
-0.1
-0.105
-0.115
-0.13
-0.115
-0.1
-0.085
-0.09
-0.105
-0.11
-0.115
-0.09
-0.08
-0.085
-0.105
-0.115
-0.1
-0.08
-0.065
-0.09
-0.1
-0.12
-0.11
-0.095
-0.09
-0.08
-0.095
-0.115
-0.105
-0.07
-0.08
-0.075
-0.095
-0.115
-0.095
-0.075
-0.06
-0.06
-0.06
-0.06
-0.03
-0.015
0.0
0.005
0.02
0.02
0.04
0.075
0.075
0.07
0.035
0.015
0.025
0.03
0.02
0.0
-0.04
-0.085
-0.095
-0.085
-0.085
-0.1
-0.115
-0.1
-0.05
0.0
0.03
0.06
0.1
0.17
0.245
0.335
0.405
0.475
0.515
0.595
0.69
0.75
0.8
0.845
0.92
1.025
1.11
1.17
1.23
1.285
1.36
1.49
1.585
1.655
1.695
1.73
1.795
1.905
2.0
2.045
1.855
1.47
1.045
0.695
0.42
0.165
-0.03
-0.175
-0.265
-0.31
-0.32
-0.35
-0.39
-0.42
-0.445
-0.465
-0.465
-0.485
-0.505
-0.52
-0.525
-0.525
-0.525
-0.515
-0.53
-0.545
-0.555
-0.545
-0.54
-0.535
-0.545
-0.575
-0.585
-0.58
-0.57
-0.565
-0.59
-0.6
-0.605
-0.63
-0.61
-0.62
-0.635
-0.645
-0.655
-0.665
-0.665
-0.675
-0.675
-0.705
-0.71
-0.7
-0.7
-0.705
-0.715
-0.72
-0.735
-0.72
-0.72
-0.71
-0.71
-0.71
-0.71
-0.71
-0.7
-0.7
-0.675
-0.675
-0.65
-0.635
-0.61
-0.595
-0.58
-0.555
-0.545
-0.51
-0.485
-0.455
-0.43
-0.405
-0.385
-0.355
-0.345
-0.315
-0.305
-0.28
-0.28
-0.27
-0.24
-0.23
-0.215
-0.225
-0.21
-0.215
-0.205
-0.2
-0.225
-0.215
-0.24
-0.24
-0.21
-0.22
-0.225
-0.225
-0.245
-0.235
-0.225
-0.215
-0.215
-0.22
-0.235
-0.22
-0.2
-0.195
-0.195
-0.21
-0.23
-0.23
-0.205
-0.205
-0.195
-0.205
-0.23
-0.22
-0.21
-0.205
-0.21
-0.23
-0.24
-0.23
-0.215
-0.195
-0.19
-0.2
-0.23
-0.23
-0.205
-0.18
-0.16
-0.155
-0.15
-0.14
-0.095
-0.06
-0.02
0.0
0.02
0.075
0.16
0.25
0.335
0.395
0.455
0.515
0.615
0.72
0.795
0.845
0.885
0.95
1.03
1.085
1.18
1.26
1.325
1.36
1.385
1.38
1.335
1.275
1.225
1.2
1.17
1.185
1.17
1.125
1.065
1.04
1.03
1.025
1.045
1.055
1.03
0.97
0.87
0.73
0.57
0.365
0.13
-0.075
-0.225
-0.325
-0.395
-0.445
-0.485
-0.505
-0.525
-0.53
-0.56
-0.6
-0.6
-0.62
-0.625
-0.635
-0.64
-0.66
-0.695
-0.69
-0.69
-0.68
-0.685
-0.715
-0.745
-0.755
-0.76
-0.755
-0.765
-0.785
-0.815
-0.825
-0.815
-0.84
-0.86
-0.885
-0.9
-0.895
-0.9
-0.895
-0.915
-0.94
-0.97
-1.0
-0.965
-0.96
-0.98
-0.985
-1.0
-1.005
-0.98
-0.955
-0.965
-0.975
-0.975
-0.965
-0.935
-0.905
-0.89
-0.87
-0.86
-0.845
-0.81
-0.77
-0.73
-0.705
-0.695
-0.655
-0.61
-0.555
-0.525
-0.52
-0.505
-0.475
-0.43
-0.395
-0.385
-0.365
-0.36
-0.345
-0.31
-0.29
-0.29
-0.295
-0.295
-0.295
-0.27
-0.255
-0.255
-0.28
-0.295
-0.295
-0.29
-0.275
-0.27
-0.265
-0.265
-0.27
-0.28
-0.255
-0.26
-0.275
-0.28
-0.28
-0.245
-0.25
-0.245
-0.26
-0.27
-0.26
-0.25
-0.23
-0.22
-0.235
-0.25
-0.245
-0.24
-0.235
-0.225
-0.225
-0.25
-0.245
-0.22
-0.205
-0.205
-0.22
-0.22
-0.225
-0.205
-0.21
-0.2
-0.21
-0.23
-0.23
-0.21
-0.195
-0.2
-0.215
-0.23
-0.21
-0.2
-0.205
-0.215
-0.235
-0.23
-0.21
-0.21
-0.195
-0.185
-0.205
-0.225
-0.215
-0.215
-0.195
-0.195
-0.2
-0.21
-0.215
-0.2
-0.185
-0.175
-0.2
-0.225
-0.2
-0.185
-0.17
-0.175
-0.2
-0.21
-0.205
-0.195
-0.175
-0.17
-0.19
-0.21
-0.21
-0.185
-0.175
-0.19
-0.2
-0.215
-0.205
-0.18
-0.175
-0.18
-0.2
-0.195
-0.2
-0.19
-0.165
-0.17
-0.195
-0.195
-0.195
-0.185
-0.17
-0.17
-0.205
-0.195
-0.185
-0.175
-0.16
-0.17
-0.18
-0.21
-0.2
-0.175
-0.155
-0.155
-0.185
-0.2
-0.195
-0.17
-0.17
-0.155
-0.165
-0.18
-0.175
-0.15
-0.135
-0.13
-0.13
-0.135
-0.12
-0.11
-0.08
-0.09
-0.075
-0.055
-0.035
-0.01
0.015
0.015
-0.005
-0.04
-0.04
-0.04
-0.03
-0.035
-0.07
-0.115
-0.13
-0.145
-0.14
-0.155
-0.18
-0.205
-0.18
-0.17
-0.16
-0.17
-0.17
-0.185
-0.19
-0.17
-0.165
-0.15
-0.185
-0.175
-0.195
-0.18
-0.17
-0.17
-0.17
-0.185
-0.175
-0.17
-0.175
-0.175
-0.115
-0.01
0.125
0.315
0.545
0.795
1.08
1.35
1.53
1.5
1.24
0.87
0.475
0.11
-0.11
-0.175
-0.165
-0.19
-0.205
-0.215
-0.195
-0.19
-0.19
-0.2
-0.215
-0.245
-0.225
-0.225
-0.205
-0.215
-0.225
-0.24
-0.25
-0.225
-0.205
-0.205
-0.205
-0.22
-0.235
-0.235
-0.2
-0.195
-0.2
-0.205
-0.205
-0.195
-0.185
-0.18
-0.195
-0.205
-0.195
-0.18
-0.145
-0.145
-0.14
-0.155
-0.13
-0.11
-0.095
-0.095
-0.105
-0.1
-0.08
-0.065
-0.03
-0.03
-0.055
-0.04
-0.03
0.0
0.015
0.03
0.025
0.03
0.05
0.075
0.09
0.1
0.09
0.09
0.11
0.135
0.16
0.17
0.165
0.165
0.185
0.195
0.225
0.235
0.215
0.195
0.195
0.205
0.215
0.175
0.125
0.125
0.085
0.09
0.11
0.095
0.065
0.03
0.005
0.0
-0.02
-0.02
-0.04
-0.08
-0.105
-0.1
-0.105
-0.095
-0.12
-0.155
-0.15
-0.145
-0.13
-0.135
-0.145
-0.16
-0.16
-0.145
-0.125
-0.13
-0.135
-0.145
-0.13
-0.15
-0.12
-0.115
-0.13
-0.14
-0.15
-0.135
-0.105
-0.11
-0.135
-0.15
-0.145
-0.125
-0.12
-0.11
-0.12
-0.14
-0.16
-0.12
-0.095
-0.095
-0.105
-0.11
-0.1
-0.07
-0.05
-0.04
-0.06
-0.045
-0.025
0.015
0.05
0.065
0.04
0.03
0.02
0.03
0.03
0.025
-0.01
-0.045
-0.035
-0.04
-0.04
-0.075
-0.105
-0.15
-0.12
-0.08
-0.01
0.015
0.035
0.065
0.115
0.2
0.285
0.375
0.44
0.505
0.565
0.645
0.735
0.8
0.845
0.915
1.015
1.11
1.18
1.245
1.33
1.43
1.535
1.575
1.565
1.54
1.55
1.605
1.67
1.705
1.76
1.8
1.815
1.815
1.765
1.57
1.245
0.895
0.59
0.33
0.105
-0.045
-0.145
-0.215
-0.3
-0.375
-0.41
-0.425
-0.445
-0.46
-0.49
-0.52
-0.51
-0.52
-0.505
-0.535
-0.565
-0.585
-0.57
-0.555
-0.545
-0.565
-0.59
-0.61
-0.61
-0.595
-0.585
-0.595
-0.625
-0.64
-0.64
-0.645
-0.635
-0.665
-0.68
-0.715
-0.705
-0.705
-0.685
-0.7
-0.72
-0.76
-0.765
-0.77
-0.755
-0.755
-0.78
-0.795
-0.8
-0.8
-0.795
-0.795
-0.815
-0.835
-0.82
-0.81
-0.795
-0.79
-0.8
-0.81
-0.79
-0.75
-0.73
-0.71
-0.72
-0.72
-0.68
-0.64
-0.59
-0.555
-0.56
-0.55
-0.52
-0.485
-0.43
-0.4
-0.385
-0.365
-0.33
-0.3
-0.265
-0.25
-0.25
-0.245
-0.235
-0.21
-0.185
-0.195
-0.21
-0.22
-0.21
-0.2
-0.175
-0.185
-0.205
-0.205
-0.19
-0.175
-0.16
-0.16
-0.175
-0.19
-0.17
-0.16
-0.15
-0.16
-0.175
-0.175
-0.165
-0.16
-0.155
-0.15
-0.165
-0.185
-0.165
-0.16
-0.15
-0.135
-0.16
-0.145
-0.13
-0.125
-0.115
-0.115
-0.135
-0.125
-0.13
-0.11
-0.11
-0.095
-0.11
-0.11
-0.105
-0.1
-0.085
-0.075
-0.085
-0.095
-0.08
-0.065
-0.06
-0.075
-0.055
-0.03
-0.01
0.02
0.055
0.095
0.135
0.185
0.24
0.315
0.37
0.44
0.515
0.58
0.65
0.735
0.825
0.89
0.93
0.97
1.03
1.125
1.24
1.29
1.355
1.44
1.53
1.62
1.645
1.62
1.54
1.45
1.39
1.345
1.31
1.29
1.27
1.225
1.19
1.16
1.16
1.125
1.095
1.08
1.085
1.065
1.03
0.93
0.795
0.63
0.48
0.305
0.12
-0.035
-0.175
-0.305
-0.35
-0.39
-0.39
-0.42
-0.45
-0.475
-0.5
-0.52
-0.52
-0.535
-0.56
-0.59
-0.595
-0.585
-0.585
-0.6
-0.63
-0.665
-0.68
-0.665
-0.67
-0.665
-0.69
-0.73
-0.73
-0.74
-0.735
-0.74
-0.765
-0.78
-0.805
-0.81
-0.81
-0.81
-0.84
-0.87
-0.865
-0.865
-0.865
-0.86
-0.88
-0.895
-0.9
-0.9
-0.885
-0.885
-0.895
-0.905
-0.905
-0.9
-0.88
-0.85
-0.84
-0.84
-0.82
-0.785
-0.76
-0.72
-0.71
-0.69
-0.635
-0.59
-0.55
-0.5
-0.485
-0.465
-0.445
-0.38
-0.33
-0.305
-0.275
-0.265
-0.235
-0.21
-0.165
-0.15
-0.145
-0.15
-0.13
-0.12
-0.11
-0.095
-0.115
-0.14
-0.13
-0.115
-0.1
-0.11
-0.11
-0.135
-0.135
-0.115
-0.095
-0.1
-0.115
-0.125
-0.135
-0.125
-0.11
-0.105
-0.135
-0.15
-0.135
-0.11
-0.1
-0.085
-0.12
-0.115
-0.115
-0.095
-0.075
-0.075
-0.095
-0.085
-0.09
-0.075
-0.06
-0.06
-0.075
-0.07
-0.06
-0.045
-0.025
-0.03
-0.06
-0.075
-0.08
-0.045
-0.03
-0.025
-0.035
-0.055
-0.065
-0.04
-0.02
-0.02
-0.03
-0.04
-0.05
-0.03
-0.015
-0.015
-0.045
-0.06
-0.055
-0.035
-0.035
-0.03
-0.055
-0.07
-0.065
-0.04
-0.015
-0.02
-0.03
-0.04
-0.05
-0.035
-0.005
-0.01
-0.025
-0.045
-0.04
-0.02
0.0
-0.005
-0.02
-0.025
-0.02
0.005
0.015
0.035
0.02
0.025
0.045
0.065
0.095
0.105
0.105
0.14
0.165
0.175
0.18
0.165
0.125
0.11
0.105
0.09
0.075
0.06
0.02
0.0
-0.005
0.0
0.0
-0.005
-0.02
-0.03
-0.03
-0.02
0.015
-0.005
-0.005
-0.02
-0.015
-0.005
0.015
0.005
-0.005
-0.03
-0.025
-0.01
-0.025
-0.035
-0.045
0.01
0.13
0.275
0.47
0.69
0.925
1.19
1.45
1.68
1.785
1.62
1.225
0.82
0.47
0.245
0.145
0.09
0.015
-0.055
-0.08
-0.06
-0.02
-0.02
-0.05
-0.065
-0.085
-0.085
-0.09
-0.09
-0.105
-0.125
-0.115
-0.1
-0.085
-0.1
-0.105
-0.1
-0.105
-0.11
-0.08
-0.085
-0.095
-0.115
-0.11
-0.095
-0.075
-0.06
-0.075
-0.1
-0.075
-0.08
-0.06
-0.04
-0.065
-0.06
-0.05
-0.04
-0.015
-0.015
-0.03
-0.01
0.01
0.01
0.06
0.06
0.045
0.05
0.065
0.095
0.13
0.13
0.135
0.14
0.17
0.19
0.22
0.25
0.235
0.245
0.26
0.265
0.285
0.3
0.3
0.3
0.325
0.34
0.36
0.355
0.34
0.34
0.35
0.37
0.365
0.345
0.305
0.28
0.27
0.26
0.24
0.21
0.175
0.135
0.125
0.115
0.105
0.09
0.05
0.01
0.005
0.0
-0.005
-0.015
-0.04
-0.06
-0.07
-0.065
-0.06
-0.09
-0.12
-0.13
-0.13
-0.115
-0.085
-0.07
-0.085
-0.08
-0.085
-0.08
-0.055
-0.055
-0.08
-0.09
-0.09
-0.07
-0.055
-0.065
-0.075
-0.09
-0.09
-0.065
-0.08
-0.07
-0.095
-0.105
-0.105
-0.075
-0.065
-0.065
-0.08
-0.095
-0.08
-0.075
-0.065
-0.07
-0.09
-0.085
-0.09
-0.075
-0.09
-0.095
-0.105
-0.105
-0.105
-0.095
-0.08
-0.07
-0.07
-0.06
-0.05
-0.045
-0.02
0.005
0.005
0.005
0.015
0.05
0.065
0.065
0.045
0.03
0.04
0.045
0.035
0.02
-0.02
-0.04
-0.06
-0.075
-0.075
-0.09
-0.105
-0.105
-0.09
-0.045
-0.005
0.035
0.06
0.12
0.195
0.28
0.37
0.42
0.46
0.52
0.59
0.675
0.75
0.805
0.855
0.92
1.015
1.135
1.21
1.275
1.355
1.43
1.54
1.59
1.655
1.665
1.695
1.73
1.79
1.87
1.935
1.995
2.06
2.08
1.97
1.705
1.34
1.0
0.69
0.375
0.15
-0.01
-0.125
-0.2
-0.28
-0.325
-0.345
-0.355
-0.355
-0.38
-0.41
-0.44
-0.445
-0.45
-0.455
-0.465
-0.495
-0.505
-0.505
-0.495
-0.49
-0.495
-0.53
-0.545
-0.565
-0.53
-0.525
-0.53
-0.56
-0.58
-0.59
-0.585
-0.57
-0.59
-0.625
-0.645
-0.645
-0.635
-0.625
-0.635
-0.66
-0.68
-0.7
-0.68
-0.67
-0.665
-0.69
-0.725
-0.725
-0.71
-0.695
-0.69
-0.695
-0.715
-0.71
-0.695
-0.69
-0.69
-0.685
-0.695
-0.675
-0.655
-0.635
-0.625
-0.635
-0.63
-0.6
-0.575
-0.55
-0.525
-0.525
-0.525
-0.485
-0.45
-0.41
-0.39
-0.39
-0.38
-0.37
-0.33
-0.3
-0.275
-0.265
-0.265
-0.25
-0.24
-0.205
-0.18
-0.185
-0.2
-0.195
-0.185
-0.17
-0.17
-0.2
-0.185
-0.2
-0.175
-0.17
-0.165
-0.185
-0.21
-0.19
-0.17
-0.16
-0.16
-0.18
-0.18
-0.17
-0.16
-0.16
-0.14
-0.16
-0.17
-0.17
-0.16
-0.145
-0.135
-0.155
-0.155
-0.14
-0.11
-0.075
-0.04
-0.03
-0.005
0.02
0.06
0.155
0.235
0.295
0.36
0.44
0.525
0.615
0.705
0.785
0.885
0.95
1.025
1.12
1.185
1.24
1.275
1.38
1.49
1.545
1.535
1.465
1.41
1.36
1.33
1.295
1.255
1.225
1.19
1.145
1.13
1.115
1.09
1.065
1.05
1.045
0.985
0.895
0.785
0.625
0.435
0.25
0.11
-0.005
-0.1
-0.175
-0.235
-0.27
-0.285
-0.305
-0.345
-0.39
-0.45
-0.48
-0.485
-0.5
-0.525
-0.545
-0.59
-0.595
-0.595
-0.6
-0.605
-0.63
-0.64
-0.66
-0.655
-0.645
-0.655
-0.685
-0.715
-0.72
-0.71
-0.715
-0.725
-0.745
-0.775
-0.78
-0.785
-0.77
-0.77
-0.78
-0.795
-0.815
-0.8
-0.79
-0.81
-0.835
-0.845
-0.855
-0.835
-0.825
-0.83
-0.84
-0.84
-0.835
-0.81
-0.78
-0.78
-0.785
-0.785
-0.76
-0.715
-0.68
-0.66
-0.655
-0.635
-0.615
-0.59
-0.555
-0.535
-0.53
-0.5
-0.46
-0.425
-0.38
-0.355
-0.35
-0.34
-0.32
-0.295
-0.265
-0.26
-0.265
-0.275
-0.27
-0.245
-0.23
-0.22
-0.245
-0.25
-0.245
-0.23
-0.225
-0.22
-0.23
-0.245
-0.24
-0.225
-0.205
-0.225
-0.225
-0.235
-0.225
-0.205
-0.19
-0.19
-0.215
-0.235
-0.22
-0.215
-0.195
-0.185
-0.2
-0.2
-0.185
-0.185
-0.17
-0.185
-0.18
-0.2
-0.19
-0.19
-0.17
-0.17
-0.17
-0.18
-0.18
-0.165
-0.15
-0.16
-0.16
-0.175
-0.16
-0.145
-0.14
-0.145
-0.16
-0.16
-0.155
-0.14
-0.13
-0.13
-0.14
-0.155
-0.155
-0.145
-0.15
-0.14
-0.14
-0.15
-0.16
-0.165
-0.145
-0.135
-0.15
-0.16
-0.16
-0.145
-0.135
-0.14
-0.14
-0.14
-0.145
-0.145
-0.14
-0.135
-0.135
-0.14
-0.145
-0.135
-0.125
-0.125
-0.155
-0.145
-0.145
-0.125
-0.12
-0.13
-0.145
-0.155
-0.145
-0.12
-0.115
-0.115
-0.13
-0.13
-0.125
-0.12
-0.1
-0.1
-0.125
-0.15
-0.13
-0.11
-0.11
-0.11
-0.13
-0.13
-0.12
-0.125
-0.12
-0.125
-0.145
-0.14
-0.125
-0.105
-0.11
-0.115
-0.11
-0.125
-0.125
-0.105
-0.095
-0.095
-0.115
-0.135
-0.12
-0.1
-0.085
-0.08
-0.1
-0.115
-0.11
-0.095
-0.075
-0.1
-0.11
-0.13
-0.115
-0.095
-0.08
-0.09
-0.115
-0.115
-0.125
-0.11
-0.125
-0.115
-0.115
-0.12
-0.125
-0.11
-0.1
-0.105
-0.115
-0.125
-0.12
-0.105
-0.085
-0.08
-0.075
-0.085
-0.08
-0.07
-0.06
-0.04
-0.025
-0.03
-0.01
0.015
0.035
0.035
0.015
0.01
0.01
0.015
0.01
0.0
-0.015
-0.045
-0.05
-0.055
-0.055
-0.075
-0.09
-0.105
-0.12
-0.105
-0.115
-0.12
-0.14
-0.13
-0.14
-0.12
-0.105
-0.11
-0.13
-0.14
-0.135
-0.125
-0.115
-0.13
-0.12
-0.14
-0.135
-0.115
-0.125
-0.14
-0.14
-0.09
0.025
0.165
0.35
0.565
0.84
1.11
1.335
1.54
1.675
1.63
1.375
1.055
0.7
0.34
0.075
-0.085
-0.15
-0.15
-0.17
-0.18
-0.185
-0.17
-0.18
-0.18
-0.195
-0.185
-0.19
-0.2
-0.22
-0.255
-0.25
-0.245
-0.225
-0.235
-0.24
-0.265
-0.26
-0.245
-0.24
-0.225
-0.24
-0.235
-0.225
-0.22
-0.21
-0.225
-0.23
-0.245
-0.23
-0.24
-0.21
-0.215
-0.22
-0.235
-0.23
-0.21
-0.2
-0.195
-0.2
-0.22
-0.205
-0.18
-0.17
-0.17
-0.185
-0.19
-0.185
-0.155
-0.14
-0.135
-0.145
-0.135
-0.12
-0.085
-0.08
-0.075
-0.08
-0.08
-0.065
-0.035
-0.025
-0.01
-0.01
-0.01
0.0
0.025
0.045
0.055
0.035
0.05
0.045
0.08
0.095
0.085
0.09
0.08
0.1
0.11
0.135
0.13
0.12
0.12
0.12
0.14
0.15
0.13
0.105
0.09
0.07
0.07
0.06
0.045
0.02
-0.025
-0.035
-0.03
-0.04
-0.075
-0.1
-0.145
-0.15
-0.15
-0.15
-0.145
-0.185
-0.2
-0.205
-0.185
-0.185
-0.185
-0.205
-0.22
-0.23
-0.23
-0.225
-0.22
-0.22
-0.235
-0.225
-0.21
-0.205
-0.215
-0.235
-0.24
-0.235
-0.22
-0.215
-0.21
-0.23
-0.235
-0.225
-0.215
-0.205
-0.22
-0.235
-0.245
-0.23
-0.21
-0.21
-0.21
-0.23
-0.24
-0.23
-0.21
-0.205
-0.22
-0.225
-0.23
-0.22
-0.215
-0.2
-0.21
-0.225
-0.23
-0.22
-0.205
-0.21
-0.2
-0.2
-0.19
-0.175
-0.165
-0.15
-0.145
-0.155
-0.12
-0.085
-0.05
-0.01
-0.015
0.005
0.03
0.08
0.12
0.165
0.185
0.215
0.265
0.335
0.43
0.49
0.54
0.575
0.625
0.675
0.76
0.835
0.91
0.975
1.035
1.085
1.16
1.245
1.315
1.35
1.355
1.345
1.315
1.255
1.195
1.125
1.06
1.03
1.01
0.98
0.94
0.875
0.84
0.81
0.795
0.78
0.73
0.71
0.69
0.685
0.645
0.6
0.495
0.36
0.18
-0.005
-0.165
-0.315
-0.43
-0.535
-0.595
-0.635
-0.64
-0.645
-0.66
-0.7
-0.735
-0.745
-0.745
-0.75
-0.76
-0.785
-0.81
-0.8
-0.8
-0.8
-0.82
-0.83
-0.85
-0.84
-0.84
-0.85
-0.85
-0.875
-0.905
-0.905
-0.895
-0.9
-0.915
-0.935
-0.945
-0.975
-0.965
-0.96
-0.98
-1.0
-1.005
-1.01
-1.005
-1.015
-1.02
-1.05
-1.065
-1.065
-1.055
-1.05
-1.07
-1.1
-1.095
-1.09
-1.07
-1.065
-1.06
-1.06
-1.055
-1.05
-1.03
-1.015
-1.0
-0.985
-0.955
-0.92
-0.885
-0.865
-0.845
-0.815
-0.8
-0.77
-0.73
-0.695
-0.665
-0.65
-0.62
-0.575
-0.535
-0.515
-0.515
-0.515
-0.515
-0.495
-0.47
-0.455
-0.45
-0.46
-0.475
-0.475
-0.46
-0.455
-0.455
-0.465
-0.465
-0.465
-0.47
-0.455
-0.445
-0.45
-0.465
-0.465
-0.445
-0.455
-0.475
-0.495
-0.505
-0.495
-0.48
-0.48
-0.505
-0.525
-0.53
-0.53
-0.525
-0.515
-0.515
-0.5
-0.49
-0.46
-0.42
-0.38
-0.35
-0.34
-0.36
-0.355
-0.33
-0.31
-0.295
-0.29
-0.285
-0.265
-0.235
-0.24
-0.25
-0.27
-0.275
-0.26
-0.23
-0.205
-0.205
-0.21
-0.23
-0.24
-0.225
-0.205
-0.185
-0.18
-0.155
-0.145
-0.125
-0.12
-0.1
-0.085
-0.08
-0.04
0.01
0.07
0.13
0.195
0.28
0.365
0.455
0.55
0.625
0.695
0.775
0.875
0.975
1.09
1.16
1.24
1.315
1.38
1.415
1.395
1.375
1.3
1.22
1.165
1.155
1.165
1.16
1.115
1.065
1.035
1.005
0.965
0.925
0.9
0.88
0.9
0.9
0.85
0.73
0.54
0.315
0.09
-0.125
-0.3
-0.465
-0.605
-0.675
-0.715
-0.72
-0.725
-0.74
-0.775
-0.81
-0.83
-0.845
-0.855
-0.87
-0.915
-0.94
-0.905
-0.885
-0.89
-0.9
-0.925
-0.935
-0.935
-0.91
-0.925
-0.93
-0.945
-0.97
-0.97
-0.975
-0.99
-0.985
-1.005
-1.025
-1.03
-1.04
-1.045
-1.075
-1.11
-1.115
-1.11
-1.095
-1.085
-1.1
-1.135
-1.15
-1.13
-1.11
-1.115
-1.105
-1.125
-1.13
-1.1
-1.065
-1.045
-1.03
-1.025
-1.015
-1.0
-0.965
-0.935
-0.905
-0.87
-0.84
-0.795
-0.735
-0.695
-0.66
-0.645
-0.61
-0.565
-0.525
-0.48
-0.455
-0.45
-0.455
-0.425
-0.405
-0.385
-0.365
-0.365
-0.365
-0.35
-0.35
-0.35
-0.35
-0.37
-0.39
-0.37
-0.38
-0.39
-0.415
-0.445
-0.46
-0.455
-0.44
-0.425
-0.44
-0.46
-0.485
-0.475
-0.47
-0.46
-0.465
-0.47
-0.49
-0.48
-0.48
-0.475
-0.495
-0.505
-0.52
-0.52
-0.51
-0.49
-0.48
-0.5
-0.5
-0.495
-0.475
-0.465
-0.47
-0.48
-0.485
-0.465
-0.45
-0.45
-0.465
-0.48
-0.485
-0.485
-0.455
-0.435
-0.44
-0.45
-0.465
-0.47
-0.46
-0.46
-0.455
-0.47
-0.465
-0.465
-0.455
-0.455
-0.455
-0.475
-0.48
-0.465
-0.43
-0.415
-0.425
-0.44
-0.44
-0.425
-0.41
-0.405
-0.41
-0.4
-0.385
-0.355
-0.35
-0.365
-0.375
-0.39
-0.405
-0.385
-0.37
-0.385
-0.37
-0.4
-0.415
-0.415
-0.395
-0.37
-0.355
-0.36
-0.375
-0.39
-0.385
-0.375
-0.37
-0.375
-0.385
-0.35
-0.32
-0.31
-0.325
-0.34
-0.335
-0.3
-0.255
-0.24
-0.235
-0.255
-0.24
-0.21
-0.175
-0.125
-0.11
-0.125
-0.135
-0.13
-0.115
-0.115
-0.12
-0.15
-0.155
-0.16
-0.17
-0.17
-0.19
-0.25
-0.285
-0.275
-0.27
-0.26
-0.275
-0.305
-0.32
-0.33
-0.3
-0.305
-0.305
-0.315
-0.33
-0.325
-0.305
-0.295
-0.285
-0.3
-0.31
-0.33
-0.32
-0.3
-0.3
-0.305
-0.31
-0.305
-0.265
-0.165
-0.045
0.1
0.275
0.495
0.8
1.125
1.395
1.54
1.44
1.19
0.865
0.52
0.16
-0.13
-0.27
-0.265
-0.22
-0.205
-0.21
-0.225
-0.19
-0.185
-0.185
-0.22
-0.245
-0.27
-0.305
-0.295
-0.295
-0.295
-0.28
-0.3
-0.335
-0.325
-0.28
-0.24
-0.22
-0.19
-0.19
-0.22
-0.24
-0.235
-0.23
-0.25
-0.285
-0.305
-0.26
-0.205
-0.25
-0.38
-0.455
-0.445
-0.365
-0.32
-0.32
-0.335
-0.33
-0.31
-0.3
-0.33
-0.355
-0.365
-0.335
-0.275
-0.24
-0.2
-0.19
-0.19
-0.19
-0.185
-0.15
-0.12
-0.1
-0.095
-0.1
-0.09
-0.075
-0.055
-0.04
-0.015
0.005
0.035
0.035
0.05
0.03
0.04
0.065
0.135
0.195
0.21
0.155
0.055
0.005
0.01
0.035
0.05
0.04
0.02
0.0
0.005
-0.005
-0.015
-0.05
-0.09
-0.11
-0.145
-0.145
-0.135
-0.135
-0.12
-0.095
-0.055
-0.03
-0.08
-0.17
-0.26
-0.32
-0.36
-0.41
-0.43
-0.41
-0.4
-0.38
-0.37
-0.345
-0.315
-0.3
-0.295
-0.28
-0.28
-0.27
-0.27
-0.285
-0.305
-0.33
-0.33
-0.315
-0.3
-0.305
-0.315
-0.31
-0.295
-0.29
-0.275
-0.265
-0.265
-0.245
-0.215
-0.185
-0.165
-0.16
-0.165
-0.175
-0.155
-0.145
-0.095
-0.085
-0.08
-0.125
-0.13
-0.075
-0.025
-0.025
-0.095
-0.175
-0.16
-0.135
-0.18
-0.28
-0.39
-0.415
-0.365
-0.325
-0.33
-0.36
-0.375
-0.37
-0.36
-0.34
-0.34
-0.345
-0.375
-0.4
-0.405
-0.38
-0.365
-0.375
-0.385
-0.37
-0.315
-0.29
-0.26
-0.205
-0.145
-0.08
-0.005
0.14
0.38
0.61
0.855
1.14
1.495
1.84
2.105
2.25
2.19
1.9
1.485
1.015
0.535
0.16
-0.045
-0.15
-0.205
-0.26
-0.315
-0.365
-0.395
-0.4
-0.375
-0.33
-0.305
-0.255
-0.205
-0.165
-0.235
-0.43
-0.62
-0.69
-0.615
-0.545
-0.505
-0.515
-0.5
-0.485
-0.475
-0.515
-0.535
-0.53
-0.485
-0.465
-0.435
-0.435
-0.445
-0.485
-0.505
-0.51
-0.515
-0.53
-0.53
-0.535
-0.52
-0.485
-0.465
-0.44
-0.415
-0.42
-0.43
-0.425
-0.44
-0.45
-0.44
-0.395
-0.36
-0.37
-0.405
-0.46
-0.48
-0.465
-0.45
-0.41
-0.38
-0.345
-0.32
-0.305
-0.305
-0.32
-0.325
-0.295
-0.27
-0.25
-0.23
-0.215
-0.195
-0.2
-0.22
-0.215
-0.19
-0.145
-0.12
-0.12
-0.11
-0.135
-0.15
-0.15
-0.145
-0.1
-0.045
0.02
0.025
0.02
0.005
-0.005
-0.06
-0.12
-0.12
-0.115
-0.14
-0.21
-0.285
-0.405
-0.51
-0.63
-0.65
-0.535
-0.38
-0.32
-0.365
-0.4
-0.3
-0.115
-0.01
-0.09
-0.28
-0.42
-0.38
-0.25
-0.2
-0.285
-0.43
-0.485
-0.445
-0.36
-0.325
-0.32
-0.27
-0.225
-0.27
-0.34
-0.315
-0.215
-0.1
-0.065
-0.12
-0.23
-0.275
-0.155
0.015
0.08
0.015
-0.04
0.035
0.22
0.455
0.65
0.7
0.67
0.655
0.705
0.785
0.875
0.98
1.19
1.41
1.575
1.62
1.645
1.625
1.65
1.765
1.97
2.01
1.815
1.57
1.495
1.485
1.495
1.425
1.38
1.305
1.205
1.085
0.99
1.025
1.07
1.085
1.06
1.025
0.96
0.83
0.615
0.36
0.145
-0.045
-0.16
-0.14
-0.06
-0.025
-0.025
-0.08
-0.21
-0.32
-0.315
-0.21
-0.12
-0.08
-0.175
-0.34
-0.46
-0.5
-0.46
-0.315
-0.185
-0.125
-0.105
-0.105
-0.185
-0.32
-0.445
-0.55
-0.575
-0.475
-0.325
-0.265
-0.25
-0.295
-0.39
-0.525
-0.595
-0.48
-0.345
-0.35
-0.46
-0.5
-0.565
-0.67
-0.735
-0.755
-0.755
-0.69
-0.57
-0.52
-0.5
-0.46
-0.37
-0.355
-0.4
-0.47
-0.55
-0.655
-0.665
-0.535
-0.375
-0.28
-0.24
-0.23
-0.195
-0.15
-0.095
-0.045
-0.02
-0.03
-0.055
-0.085
-0.085
-0.035
0.025
0.035
0.015
-0.025
-0.035
0.0
0.04
0.055
0.06
0.035
0.0
-0.02
-0.04
-0.065
-0.075
-0.06
-0.075
-0.065
-0.065
-0.08
-0.105
-0.12
-0.13
-0.12
-0.08
-0.065
-0.075
-0.115
-0.145
-0.135
-0.12
-0.125
-0.15
-0.13
-0.105
-0.075
-0.1
-0.13
-0.155
-0.165
-0.16
-0.145
-0.11
-0.105
-0.12
-0.14
-0.155
-0.14
-0.13
-0.11
-0.11
-0.11
-0.12
-0.105
-0.085
-0.06
-0.05
-0.055
-0.06
-0.055
-0.05
-0.075
-0.09
-0.085
-0.08
-0.065
-0.07
-0.08
-0.075
-0.07
-0.08
-0.07
-0.045
-0.035
-0.04
-0.045
-0.035
0.005
0.03
0.065
0.08
0.095
0.13
0.14
0.135
0.135
0.125
0.1
0.085
0.08
0.09
0.095
0.085
0.04
-0.01
-0.035
-0.02
-0.04
-0.045
-0.065
-0.085
-0.085
-0.085
-0.08
-0.07
-0.08
-0.085
-0.08
-0.04
-0.04
-0.035
-0.065
-0.085
-0.075
-0.065
-0.04
-0.025
-0.03
-0.04
-0.045
-0.04
-0.025
-0.03
-0.005
0.055
0.185
0.365
0.595
0.89
1.21
1.505
1.765
1.85
1.68
1.27
0.765
0.315
0.07
0.005
0.01
0.01
-0.005
-0.015
0.015
0.035
0.01
-0.025
-0.07
-0.08
-0.09
-0.09
-0.08
-0.075
-0.1
-0.105
-0.09
-0.06
-0.07
-0.08
-0.135
-0.13
-0.11
-0.085
-0.095
-0.125
-0.15
-0.165
-0.135
-0.115
-0.105
-0.105
-0.115
-0.125
-0.125
-0.11
-0.09
-0.085
-0.105
-0.1
-0.065
-0.035
-0.02
-0.03
-0.055
-0.045
-0.04
0.0
0.025
0.03
0.03
0.035
0.03
0.035
0.07
0.075
0.075
0.115
0.16
0.215
0.24
0.24
0.235
0.24
0.285
0.32
0.375
0.39
0.41
0.42
0.45
0.46
0.47
0.46
0.415
0.385
0.385
0.34
0.305
0.265
0.215
0.18
0.135
0.11
0.1
0.045
0.0
-0.03
-0.05
-0.05
-0.06
-0.085
-0.095
-0.125
-0.125
-0.135
-0.15
-0.175
-0.19
-0.195
-0.175
-0.165
-0.155
-0.175
-0.2
-0.215
-0.24
-0.225
-0.22
-0.225
-0.245
-0.255
-0.275
-0.265
-0.3
-0.315
-0.36
-0.385
-0.4
-0.395
-0.39
-0.385
-0.42
-0.49
-0.52
-0.54
-0.55
-0.515
-0.4
-0.265
-0.22
-0.205
-0.11
-0.035
-0.06
-0.11
-0.1
-0.05
-0.015
0.005
0.035
0.055
0.025
-0.015
-0.07
-0.125
-0.155
-0.15
-0.12
-0.07
-0.075
-0.07
-0.095
-0.11
-0.11
-0.08
-0.08
-0.085
-0.09
-0.09
-0.07
-0.04
-0.035
-0.03
-0.015
0.045
0.17
0.375
0.655
0.93
1.185
1.44
1.66
1.745
1.57
1.19
0.745
0.375
0.13
0.025
0.015
0.03
0.05
0.045
0.04
0.075
0.075
0.085
0.065
0.04
0.01
-0.005
-0.035
-0.055
-0.095
-0.125
-0.13
-0.11
-0.095
-0.1
-0.11
-0.125
-0.12
-0.1
-0.09
-0.08
-0.085
-0.07
-0.045
0.015
0.07
0.095
0.11
0.09
0.075
0.07
0.045
0.01
-0.015
0.005
0.05
0.045
0.005
-0.035
-0.06
-0.04
-0.01
0.01
0.015
-0.005
-0.02
-0.03
-0.015
0.02
0.045
0.035
0.04
0.06
0.095
0.12
0.125
0.13
0.13
0.145
0.155
0.18
0.22
0.23
0.25
0.27
0.295
0.385
0.415
0.42
0.37
0.325
0.355
0.405
0.435
0.445
0.395
0.34
0.295
0.265
0.255
0.245
0.24
0.26
0.28
0.28
0.27
0.225
0.2
0.175
0.225
0.24
0.225
0.175
0.12
0.105
0.135
0.16
0.155
0.12
0.09
0.09
0.105
0.12
0.11
0.105
0.075
0.075
0.08
0.09
0.065
0.045
0.04
0.01
0.015
0.04
0.05
0.015
-0.03
-0.05
-0.025
-0.01
-0.025
-0.035
-0.045
-0.045
-0.04
0.005
0.02
0.005
-0.015
-0.03
-0.015
0.02
0.035
0.055
0.07
0.105
0.12
0.145
0.15
0.17
0.17
0.165
0.13
0.09
0.08
0.065
0.065
0.04
0.025
0.02
0.015
0.005
-0.005
-0.035
-0.055
-0.04
-0.015
0.005
0.025
0.045
0.09
0.14
0.22
0.26
0.275
0.315
0.375
0.49
0.565
0.6
0.62
0.67
0.745
0.855
0.9
0.93
0.98
1.07
1.25
1.48
1.72
1.865
1.975
1.99
2.05
2.1
2.05
1.82
1.41
0.965
0.6
0.335
0.18
0.08
-0.03
-0.14
-0.245
-0.305
-0.31
-0.31
-0.35
-0.38
-0.375
-0.375
-0.355
-0.38
-0.38
-0.43
-0.475
-0.49
-0.49
-0.485
-0.505
-0.51
-0.52
-0.51
-0.52
-0.535
-0.565
-0.57
-0.565
-0.565
-0.59
-0.63
-0.67
-0.685
-0.695
-0.68
-0.635
-0.655
-0.67
-0.685
-0.68
-0.695
-0.7
-0.685
-0.69
-0.71
-0.745
-0.77
-0.8
-0.81
-0.83
-0.835
-0.83
-0.775
-0.77
-0.775
-0.805
-0.795
-0.76
-0.725
-0.695
-0.68
-0.715
-0.735
-0.725
-0.72
-0.705
-0.685
-0.685
-0.675
-0.65
-0.62
-0.625
-0.625
-0.625
-0.625
-0.59
-0.54
-0.51
-0.505
-0.51
-0.495
-0.45
-0.43
-0.4
-0.37
-0.375
-0.375
-0.38
-0.35
-0.35
-0.38
-0.395
-0.4
-0.395
-0.375
-0.37
-0.38
-0.395
-0.415
-0.425
-0.425
-0.44
-0.455
-0.465
-0.465
-0.465
-0.445
-0.465
-0.485
-0.5
-0.525
-0.505
-0.49
-0.5
-0.515
-0.53
-0.52
-0.52
-0.515
-0.5
-0.49
-0.51
-0.515
-0.5
-0.47
-0.45
-0.445
-0.46
-0.465
-0.43
-0.4
-0.385
-0.38
-0.37
-0.36
-0.345
-0.32
-0.29
-0.28
-0.26
-0.245
-0.235
-0.22
-0.22
-0.22
-0.225
-0.21
-0.2
-0.19
-0.195
-0.23
-0.26
-0.285
-0.31
-0.305
-0.33
-0.365
-0.4
-0.42
-0.41
-0.415
-0.425
-0.465
-0.5
-0.525
-0.525
-0.535
-0.55
-0.57
-0.58
-0.575
-0.57
-0.565
-0.55
-0.55
-0.575
-0.585
-0.595
-0.59
-0.58
-0.595
-0.63
-0.685
-0.7
-0.685
-0.61
-0.505
-0.35
-0.165
0.075
0.315
0.53
0.735
0.91
1.02
0.96
0.71
0.34
-0.045
-0.35
-0.55
-0.595
-0.615
-0.635
-0.68
-0.725
-0.72
-0.68
-0.635
-0.625
-0.665
-0.69
-0.7
-0.705
-0.715
-0.73
-0.735
-0.76
-0.75
-0.72
-0.69
-0.68
-0.69
-0.7
-0.7
-0.66
-0.63
-0.62
-0.625
-0.64
-0.645
-0.625
-0.61
-0.59
-0.6
-0.6
-0.6
-0.585
-0.575
-0.565
-0.58
-0.57
-0.56
-0.545
-0.53
-0.52
-0.53
-0.555
-0.565
-0.545
-0.52
-0.505
-0.505
-0.505
-0.505
-0.49
-0.465
-0.465
-0.46
-0.47
-0.475
-0.445
-0.435
-0.435
-0.45
-0.47
-0.47
-0.465
-0.455
-0.435
-0.45
-0.465
-0.45
-0.41
-0.37
-0.345
-0.33
-0.355
-0.375
-0.355
-0.345
-0.32
-0.335
-0.35
-0.36
-0.35
-0.34
-0.345
-0.355
-0.38
-0.395
-0.415
-0.415
-0.415
-0.45
-0.47
-0.505
-0.52
-0.525
-0.53
-0.535
-0.575
-0.605
-0.595
-0.585
-0.585
-0.605
-0.62
-0.635
-0.63
-0.605
-0.6
-0.6
-0.625
-0.63
-0.645
-0.625
-0.615
-0.61
-0.63
-0.635
-0.63
-0.605
-0.595
-0.6
-0.62
-0.6
-0.6
-0.585
-0.575
-0.58
-0.585
-0.59
-0.585
-0.56
-0.53
-0.515
-0.505
-0.51
-0.505
-0.505
-0.475
-0.44
-0.435
-0.425
-0.425
-0.405
-0.405
-0.395
-0.405
-0.42
-0.435
-0.445
-0.44
-0.46
-0.5
-0.535
-0.545
-0.54
-0.55
-0.565
-0.6
-0.6
-0.6
-0.585
-0.585
-0.575
-0.61
-0.645
-0.655
-0.65
-0.625
-0.61
-0.635
-0.655
-0.655
-0.65
-0.645
-0.665
-0.675
-0.69
-0.71
-0.7
-0.7
-0.695
-0.72
-0.7
-0.615
-0.445
-0.255
-0.05
0.17
0.43
0.705
0.95
1.105
1.035
0.72
0.285
-0.145
-0.495
-0.695
-0.765
-0.775
-0.74
-0.715
-0.685
-0.63
-0.61
-0.625
-0.645
-0.635
-0.63
-0.625
-0.63
-0.635
-0.65
-0.64
-0.61
-0.6
-0.595
-0.605
-0.625
-0.615
-0.595
-0.58
-0.6
-0.59
-0.59
-0.575
-0.555
-0.545
-0.54
-0.545
-0.545
-0.535
-0.515
-0.5
-0.505
-0.51
-0.515
-0.485
-0.47
-0.47
-0.46
-0.445
-0.45
-0.425
-0.395
-0.365
-0.365
-0.375
-0.38
-0.36
-0.325
-0.305
-0.295
-0.295
-0.285
-0.25
-0.23
-0.195
-0.2
-0.21
-0.195
-0.17
-0.145
-0.125
-0.11
-0.115
-0.115
-0.085
-0.07
-0.06
-0.065
-0.09
-0.075
-0.06
-0.02
-0.01
-0.01
-0.035
-0.06
-0.035
0.005
0.01
-0.01
-0.025
-0.035
-0.03
-0.04
-0.04
-0.065
-0.095
-0.12
-0.115
-0.115
-0.125
-0.155
-0.2
-0.21
-0.19
-0.185
-0.195
-0.215
-0.24
-0.26
-0.26
-0.245
-0.24
-0.2
-0.19
-0.19
-0.19
-0.195
-0.21
-0.215
-0.21
-0.225
-0.225
-0.23
-0.23
-0.245
-0.255
-0.26
-0.24
-0.21
-0.2
-0.2
-0.22
-0.215
-0.215
-0.2
-0.195
-0.19
-0.19
-0.19
-0.175
-0.15
-0.11
-0.1
-0.13
-0.14
-0.14
-0.12
-0.12
-0.14
-0.155
-0.155
-0.15
-0.165
-0.175
-0.195
-0.225
-0.26
-0.265
-0.245
-0.25
-0.235
-0.24
-0.24
-0.255
-0.235
-0.235
-0.235
-0.22
-0.235
-0.22
-0.205
-0.195
-0.19
-0.195
-0.18
-0.175
-0.15
-0.15
-0.14
-0.13
-0.135
-0.125
-0.13
-0.125
-0.065
0.035
0.175
0.37
0.605
0.885
1.175
1.46
1.735
1.95
1.935
1.65
1.2
0.74
0.345
0.11
0.03
0.0
-0.015
-0.05
-0.06
-0.05
-0.035
-0.035
-0.06
-0.07
-0.085
-0.1
-0.1
-0.12
-0.13
-0.145
-0.13
-0.115
-0.09
-0.1
-0.105
-0.13
-0.125
-0.1
-0.085
-0.08
-0.11
-0.12
-0.135
-0.13
-0.1
-0.075
-0.06
-0.07
-0.07
-0.07
-0.065
-0.055
-0.045
-0.05
-0.07
-0.065
-0.04
-0.02
-0.015
-0.035
-0.05
-0.04
-0.02
0.0
0.02
0.005
0.015
0.015
0.04
0.055
0.05
0.04
0.06
0.085
0.12
0.13
0.125
0.105
0.105
0.125
0.15
0.18
0.185
0.18
0.195
0.22
0.25
0.26
0.245
0.235
0.255
0.295
0.32
0.32
0.31
0.3
0.305
0.295
0.285
0.295
0.295
0.28
0.265
0.265
0.28
0.28
0.285
0.28
0.26
0.255
0.255
0.27
0.29
0.28
0.25
0.23
0.245
0.265
0.285
0.27
0.265
0.265
0.265
0.265
0.26
0.245
0.24
0.24
0.275
0.295
0.28
0.255
0.255
0.29
0.295
0.305
0.29
0.275
0.28
0.31
0.335
0.365
0.37
0.355
0.365
0.39
0.435
0.455
0.46
0.445
0.44
0.455
0.49
0.52
0.5
0.5
0.515
0.54
0.58
0.645
0.66
0.67
0.71
0.78
0.88
0.965
1.03
1.07
1.155
1.225
1.33
1.45
1.58
1.67
1.76
1.88
1.995
2.05
2.04
1.985
1.895
1.81
1.725
1.635
1.545
1.445
1.36
1.295
1.265
1.21
1.15
1.075
1.05
1.045
1.07
1.055
1.015
0.925
0.855
0.77
0.66
0.51
0.34
0.21
0.1
0.035
0.015
-0.02
-0.05
-0.09
-0.115
-0.115
-0.12
-0.13
-0.15
-0.175
-0.17
-0.185
-0.19
-0.18
-0.19
-0.205
-0.235
-0.225
-0.22
-0.23
-0.24
-0.27
-0.31
-0.32
-0.315
-0.33
-0.34
-0.385
-0.42
-0.43
-0.43
-0.42
-0.43
-0.46
-0.49
-0.495
-0.5
-0.485
-0.495
-0.515
-0.54
-0.53
-0.515
-0.505
-0.525
-0.535
-0.54
-0.505
-0.495
-0.485
-0.47
-0.46
-0.445
-0.415
-0.37
-0.345
-0.31
-0.305
-0.27
-0.21
-0.14
-0.08
-0.04
-0.015
0.01
0.07
0.145
0.195
0.245
0.27
0.305
0.34
0.4
0.43
0.44
0.42
0.455
0.475
0.515
0.52
0.515
0.49
0.48
0.485
0.49
0.505
0.49
0.465
0.45
0.46
0.465
0.47
0.47
0.475
0.47
0.47
0.49
0.5
0.49
0.475
0.45
0.485
0.505
0.515
0.505
0.49
0.495
0.52
0.53
0.52
0.52
0.51
0.5
0.505
0.515
0.535
0.53
0.505
0.505
0.52
0.52
0.52
0.515
0.51
0.51
0.52
0.545
0.56
0.56
0.55
0.545
0.585
0.605
0.625
0.615
0.585
0.565
0.56
0.565
0.56
0.54
0.51
0.485
0.455
0.47
0.465
0.45
0.48
0.48
0.495
0.52
0.525
0.515
0.495
0.49
0.495
0.515
0.525
0.52
0.505
0.5
0.51
0.535
0.545
0.525
0.535
0.525
0.53
0.56
0.565
0.555
0.55
0.54
0.535
0.53
0.56
0.625
0.735
0.885
1.065
1.295
1.52
1.73
1.945
2.105
2.155
1.985
1.66
1.275
0.93
0.675
0.545
0.53
0.535
0.505
0.485
0.52
0.56
0.585
0.57
0.55
0.525
0.52
0.53
0.54
0.54
0.535
0.53
0.515
0.54
0.565
0.565
0.57
0.57
0.57
0.57
0.58
0.575
0.575
0.58
0.575
0.58
0.595
0.6
0.6
0.59
0.57
0.575
0.575
0.585
0.58
0.57
0.58
0.6
0.605
0.585
0.585
0.58
0.6
0.605
0.63
0.625
0.635
0.615
0.61
0.63
0.655
0.66
0.67
0.65
0.655
0.67
0.725
0.75
0.74
0.75
0.765
0.775
0.785
0.805
0.81
0.8
0.815
0.825
0.85
0.855
0.845
0.86
0.835
0.86
0.87
0.875
0.88
0.86
0.865
0.875
0.87
0.86
0.845
0.83
0.805
0.78
0.785
0.76
0.74
0.705
0.705
0.68
0.675
0.65
0.63
0.6
0.585
0.585
0.585
0.58
0.57
0.535
0.52
0.53
0.55
0.54
0.52
0.495
0.49
0.51
0.535
0.555
0.535
0.52
0.5
0.5
0.51
0.52
0.505
0.485
0.495
0.505
0.535
0.535
0.56
0.55
0.535
0.57
0.595
0.605
0.605
0.61
0.62
0.635
0.63
0.62
0.615
0.6
0.585
0.58
0.58
0.565
0.53
0.495
0.475
0.48
0.47
0.465
0.445
0.425
0.415
0.405
0.41
0.4
0.405
0.39
0.37
0.375
0.365
0.38
0.375
0.355
0.35
0.35
0.365
0.36
0.34
0.315
0.31
0.315
0.325
0.31
0.27
0.23
0.205
0.245
0.345
0.475
0.615
0.775
0.98
1.205
1.46
1.66
1.77
1.74
1.53
1.2
0.87
0.555
0.3
0.165
0.145
0.2
0.21
0.205
0.21
0.22
0.22
0.21
0.2
0.2
0.17
0.145
0.16
0.165
0.195
0.19
0.175
0.175
0.18
0.2
0.21
0.205
0.21
0.21
0.21
0.205
0.205
0.225
0.235
0.23
0.225
0.225
0.25
0.255
0.235
0.22
0.22
0.24
0.25
0.255
0.26
0.25
0.255
0.265
0.26
0.245
0.245
0.235
0.25
0.25
0.28
0.315
0.325
0.3
0.285
0.3
0.325
0.335
0.34
0.305
0.3
0.335
0.355
0.37
0.36
0.35
0.32
0.36
0.38
0.4
0.385
0.365
0.37
0.39
0.42
0.425
0.415
0.395
0.38
0.39
0.43
0.44
0.425
0.41
0.4
0.41
0.405
0.395
0.35
0.305
0.27
0.25
0.27
0.275
0.26
0.235
0.22
0.21
0.215
0.205
0.2
0.18
0.16
0.16
0.155
0.15
0.125
0.105
0.115
0.125
0.15
0.155
0.15
0.135
0.135
0.135
0.14
0.135
0.155
0.13
0.125
0.115
0.135
0.135
0.145
0.135
0.13
0.155
0.19
0.23
0.235
0.235
0.235
0.25
0.275
0.295
0.305
0.31
0.325
0.32
0.315
0.31
0.305
0.285
0.28
0.26
0.26
0.24
0.22
0.22
0.185
0.17
0.175
0.165
0.145
0.075
0.055
0.085
0.095
0.105
0.08
0.04
0.02
0.01
0.02
0.02
0.01
0.0
0.01
0.005
-0.025
-0.035
-0.045
-0.065
-0.065
-0.04
-0.05
-0.065
-0.085
-0.095
-0.05
0.06
0.205
0.395
0.61
0.895
1.18
1.46
1.705
1.775
1.595
1.24
0.845
0.47
0.185
0.01
-0.045
-0.085
-0.115
-0.105
-0.075
-0.06
-0.09
-0.11
-0.145
-0.15
-0.155
-0.165
-0.17
-0.185
-0.195
-0.205
-0.195
-0.175
-0.19
-0.21
-0.24
-0.225
-0.215
-0.205
-0.22
-0.23
-0.23
-0.235
-0.205
-0.195
-0.22
-0.23
-0.24
-0.25
-0.235
-0.23
-0.24
-0.235
-0.245
-0.225
-0.205
-0.21
-0.2
-0.19
-0.19
-0.185
-0.16
-0.145
-0.14
-0.155
-0.145
-0.125
-0.1
-0.095
-0.09
-0.125
-0.11
-0.09
-0.055
-0.04
-0.04
-0.055
-0.075
-0.04
-0.02
-0.035
-0.06
-0.06
-0.05
-0.015
0.02
0.04
0.04
0.045
0.04
0.05
0.065
0.05
0.045
0.03
0.03
0.02
0.025
0.025
0.0
-0.05
-0.07
-0.08
-0.08
-0.085
-0.115
-0.135
-0.165
-0.17
-0.16
-0.17
-0.19
-0.2
-0.21
-0.21
-0.19
-0.175
-0.17
-0.19
-0.2
-0.205
-0.18
-0.185
-0.185
-0.205
-0.23
-0.185
-0.17
-0.18
-0.19
-0.19
-0.2
-0.19
-0.16
-0.165
-0.16
-0.18
-0.17
-0.14
-0.115
-0.095
-0.085
-0.075
-0.06
-0.015
0.03
0.03
0.015
0.025
0.05
0.095
0.14
0.17
0.175
0.215
0.255
0.31
0.39
0.455
0.515
0.565
0.655
0.75
0.855
0.92
1.005
1.105
1.215
1.34
1.455
1.57
1.645
1.645
1.6
1.565
1.505
1.435
1.345
1.23
1.125
1.03
0.955
0.925
0.86
0.765
0.64
0.555
0.51
0.48
0.42
0.31
0.195
0.1
0.03
-0.095
-0.295
-0.49
-0.63
-0.71
-0.755
-0.8
-0.84
-0.885
-0.93
-0.93
-0.94
-0.96
-0.995
-1.0
-1.02
-1.01
-1.015
-1.045
-1.065
-1.085
-1.1
-1.1
-1.1
-1.1
-1.125
-1.155
-1.19
-1.185
-1.16
-1.17
-1.19
-1.22
-1.265
-1.25
-1.235
-1.245
-1.27
-1.27
-1.29
-1.285
-1.295
-1.305
-1.32
-1.335
-1.345
-1.34
-1.34
-1.355
-1.385
-1.37
-1.355
-1.335
-1.33
-1.345
-1.345
-1.33
-1.325
-1.3
-1.28
-1.265
-1.23
-1.215
-1.18
-1.14
-1.105
-1.085
-1.085
-1.065
-1.025
-0.97
-0.925
-0.87
-0.845
-0.815
-0.805
-0.76
-0.725
-0.695
-0.68
-0.69
-0.675
-0.65
-0.63
-0.63
-0.62
-0.625
-0.645
-0.64
-0.595
-0.59
-0.605
-0.62
-0.62
-0.59
-0.575
-0.585
-0.61
-0.62
-0.63
-0.625
-0.595
-0.59
-0.6
-0.615
-0.625
-0.615
-0.59
-0.58
-0.6
-0.61
-0.61
-0.605
-0.6
-0.6
-0.605
-0.61
-0.63
-0.615
-0.615
-0.62
-0.63
-0.64
-0.635
-0.625
-0.615
-0.615
-0.61
-0.605
-0.59
-0.55
-0.5
-0.485
-0.5
-0.5
-0.48
-0.46
-0.435
-0.405
-0.39
-0.39
-0.4
-0.395
-0.375
-0.39
-0.395
-0.415
-0.42
-0.435
-0.475
-0.475
-0.515
-0.54
-0.54
-0.55
-0.565
-0.565
-0.595
-0.6
-0.595
-0.58
-0.58
-0.595
-0.61
-0.62
-0.635
-0.62
-0.61
-0.62
-0.635
-0.66
-0.67
-0.66
-0.64
-0.65
-0.68
-0.695
-0.695
-0.64
-0.525
-0.355
-0.125
0.15
0.445
0.72
0.935
1.08
0.96
0.58
0.05
-0.42
-0.73
-0.835
-0.815
-0.785
-0.775
-0.755
-0.755
-0.73
-0.73
-0.765
-0.775
-0.78
-0.755
-0.765
-0.78
-0.795
-0.82
-0.81
-0.775
-0.75
-0.765
-0.8
-0.805
-0.795
-0.76
-0.745
-0.75
-0.775
-0.775
-0.76
-0.73
-0.73
-0.75
-0.755
-0.76
-0.73
-0.72
-0.705
-0.71
-0.715
-0.715
-0.695
-0.66
-0.64
-0.655
-0.665
-0.675
-0.655
-0.62
-0.61
-0.61
-0.605
-0.61
-0.6
-0.575
-0.555
-0.55
-0.53
-0.54
-0.51
-0.495
-0.48
-0.465
-0.475
-0.47
-0.45
-0.425
-0.405
-0.395
-0.415
-0.41
-0.405
-0.38
-0.36
-0.355
-0.385
-0.395
-0.385
-0.39
-0.415
-0.415
-0.45
-0.46
-0.455
-0.445
-0.47
-0.495
-0.54
-0.57
-0.61
-0.61
-0.615
-0.635
-0.665
-0.68
-0.69
-0.695
-0.68
-0.69
-0.705
-0.71
-0.705
-0.685
-0.69
-0.7
-0.72
-0.72
-0.74
-0.705
-0.705
-0.71
-0.73
-0.75
-0.745
-0.725
-0.73
-0.715
-0.715
-0.71
-0.695
-0.695
-0.71
-0.7
-0.71
-0.69
-0.665
-0.645
-0.63
-0.635
-0.645
-0.655
-0.66
-0.685
-0.695
-0.73
-0.735
-0.74
-0.76
-0.775
-0.795
-0.845
-0.86
-0.875
-0.89
-0.885
-0.87
-0.895
-0.905
-0.92
-0.9
-0.89
-0.875
-0.885
-0.89
-0.89
-0.885
-0.875
-0.865
-0.885
-0.89
-0.885
-0.88
-0.89
-0.915
-0.955
-0.93
-0.82
-0.63
-0.355
-0.045
0.29
0.585
0.73
0.56
0.115
-0.425
-0.835
-1.0
-0.975
-0.91
-0.86
-0.865
-0.895
-0.935
-0.95
-0.95
-0.945
-0.94
-0.96
-0.985
-0.985
-0.98
-0.945
-0.94
-0.95
-0.96
-0.955
-0.945
-0.925
-0.93
-0.945
-0.955
-0.955
-0.955
-0.93
-0.91
-0.91
-0.915
-0.91
-0.9
-0.89
-0.9
-0.905
-0.91
-0.91
-0.9
-0.895
-0.88
-0.855
-0.86
-0.85
-0.835
-0.825
-0.825
-0.82
-0.835
-0.805
-0.785
-0.77
-0.78
-0.79
-0.805
-0.805
-0.785
-0.755
-0.75
-0.765
-0.75
-0.765
-0.76
-0.73
-0.715
-0.71
-0.73
-0.75
-0.745
-0.735
-0.72
-0.735
-0.735
-0.73
-0.73
-0.695
-0.69
-0.72
-0.76
-0.78
-0.79
-0.8
-0.8
-0.815
-0.83
-0.86
-0.86
-0.865
-0.88
-0.9
-0.93
-0.915
-0.925
-0.92
-0.915
-0.945
-0.95
-0.95
-0.935
-0.93
-0.92
-0.915
-0.92
-0.915
-0.9
-0.9
-0.895
-0.885
-0.9
-0.91
-0.895
-0.885
-0.865
-0.88
-0.885
-0.875
-0.85
-0.81
-0.81
-0.805
-0.815
-0.815
-0.775
-0.75
-0.72
-0.725
-0.735
-0.74
-0.74
-0.725
-0.72
-0.73
-0.76
-0.78
-0.785
-0.785
-0.81
-0.82
-0.84
-0.865
-0.87
-0.875
-0.88
-0.89
-0.915
-0.935
-0.93
-0.925
-0.93
-0.94
-0.93
-0.93
-0.915
-0.905
-0.905
-0.905
-0.93
-0.935
-0.945
-0.945
-0.955
-0.98
-1.0
-1.005
-0.975
-0.88
-0.73
-0.53
-0.26
0.045
0.37
0.685
0.895
0.98
0.83
0.485
0.06
-0.37
-0.695
-0.88
-0.945
-0.955
-0.945
-0.95
-0.92
-0.945
-0.965
-0.98
-0.97
-0.955
-0.96
-0.98
-1.0
-1.025
-1.035
-1.01
-0.985
-0.975
-1.0
-1.0
-1.0
-0.99
-0.985
-0.995
-1.005
-0.995
-0.99
-0.97
-0.955
-0.98
-0.98
-1.01
-0.975
-0.94
-0.94
-0.945
-0.985
-0.965
-0.95
-0.93
-0.92
-0.915
-0.915
-0.925
-0.935
-0.915
-0.905
-0.895
-0.905
-0.91
-0.88
-0.86
-0.85
-0.85
-0.86
-0.84
-0.825
-0.785
-0.78
-0.79
-0.8
-0.8
-0.78
-0.76
-0.745
-0.755
-0.765
-0.77
-0.76
-0.745
-0.735
-0.74
-0.73
-0.73
-0.695
-0.68
-0.67
-0.68
-0.68
-0.695
-0.68
-0.66
-0.665
-0.675
-0.71
-0.705
-0.695
-0.69
-0.695
-0.71
-0.735
-0.775
-0.79
-0.785
-0.79
-0.78
-0.79
-0.815
-0.825
-0.85
-0.835
-0.83
-0.84
-0.84
-0.845
-0.845
-0.855
-0.85
-0.855
-0.84
-0.825
-0.825
-0.82
-0.82
-0.835
-0.825
-0.815
-0.825
-0.825
-0.815
-0.805
-0.795
-0.78
-0.77
-0.755
-0.765
-0.77
-0.76
-0.74
-0.725
-0.72
-0.73
-0.725
-0.73
-0.705
-0.675
-0.655
-0.65
-0.65
-0.635
-0.625
-0.6
-0.61
-0.615
-0.62
-0.585
-0.54
-0.515
-0.495
-0.475
-0.45
-0.385
-0.28
-0.18
-0.05
0.005
0.085
0.18
0.29
0.405
0.53
0.635
0.76
0.85
0.975
1.085
1.15
1.175
1.135
1.075
1.015
0.94
0.87
0.805
0.725
0.635
0.565
0.505
0.435
0.37
0.295
0.24
0.195
0.165
0.15
0.125
0.04
-0.075
-0.195
-0.295
-0.45
-0.655
-0.855
-1.015
-1.11
-1.165
-1.2
-1.22
-1.255
-1.275
-1.28
-1.295
-1.305
-1.33
-1.355
-1.375
-1.375
-1.36
-1.375
-1.39
-1.415
-1.435
-1.435
-1.43
-1.435
-1.46
-1.5
-1.515
-1.515
-1.505
-1.53
-1.545
-1.565
-1.575
-1.58
-1.585
-1.6
-1.62
-1.635
-1.655
-1.64
-1.645
-1.65
-1.675
-1.69
-1.715
-1.72
-1.715
-1.71
-1.71
-1.725
-1.745
-1.745
-1.735
-1.725
-1.73
-1.73
-1.74
-1.71
-1.695
-1.675
-1.66
-1.655
-1.63
-1.59
-1.535
-1.505
-1.455
-1.445
-1.415
-1.4
-1.35
-1.29
-1.265
-1.245
-1.22
-1.18
-1.15
-1.115
-1.115
-1.105
-1.08
-1.055
-1.025
-1.005
-1.0
-1.015
-1.005
-0.99
-0.98
-0.955
-0.955
-0.965
-0.96
-0.945
-0.93
-0.935
-0.955
-0.955
-0.935
-0.925
-0.9
-0.905
-0.91
-0.905
-0.9
-0.88
-0.86
-0.845
-0.845
-0.86
-0.87
-0.87
-0.85
-0.84
-0.84
-0.84
-0.845
-0.82
-0.825
-0.83
-0.83
-0.84
-0.84
-0.81
-0.785
-0.775
-0.77
-0.77
-0.76
-0.75
-0.74
-0.72
-0.715
-0.69
-0.68
-0.66
-0.66
-0.675
-0.675
-0.685
-0.685
-0.685
-0.675
-0.7
-0.735
-0.785
-0.805
-0.805
-0.795
-0.795
-0.815
-0.82
-0.835
-0.84
-0.845
-0.84
-0.845
-0.86
-0.88
-0.855
-0.83
-0.835
-0.84
-0.86
-0.865
-0.855
-0.825
-0.82
-0.815
-0.82
-0.835
-0.83
-0.825
-0.825
-0.84
-0.88
-0.865
-0.815
-0.74
-0.63
-0.46
-0.245
0.02
0.315
0.6
0.83
0.97
0.95
0.705
0.325
-0.085
-0.44
-0.67
-0.795
-0.82
-0.825
-0.815
-0.825
-0.83
-0.825
-0.835
-0.85
-0.865
-0.86
-0.86
-0.865
-0.865
-0.865
-0.855
-0.855
-0.865
-0.89
-0.865
-0.865
-0.86
-0.85
-0.845
-0.845
-0.85
-0.825
-0.83
-0.835
-0.83
-0.845
-0.83
-0.835
-0.8
-0.79
-0.795
-0.81
-0.8
-0.785
-0.76
-0.73
-0.74
-0.76
-0.765
-0.75
-0.74
-0.72
-0.715
-0.715
-0.705
-0.695
-0.68
-0.665
-0.685
-0.67
-0.67
-0.665
-0.63
-0.61
-0.61
-0.62
-0.615
-0.605
-0.59
-0.555
-0.56
-0.56
-0.54
-0.525
-0.5
-0.475
-0.485
-0.485
-0.47
-0.455
-0.43
-0.425
-0.42
-0.425
-0.43
-0.395
-0.37
-0.33
-0.325
-0.345
-0.36
-0.365
-0.34
-0.335
-0.355
-0.38
-0.405
-0.385
-0.38
-0.385
-0.42
-0.48
-0.505
-0.505
-0.5
-0.505
-0.52
-0.545
-0.57
-0.57
-0.565
-0.56
-0.585
-0.61
-0.61
-0.62
-0.59
-0.58
-0.585
-0.615
-0.625
-0.63
-0.6
-0.59
-0.59
-0.61
-0.61
-0.61
-0.59
-0.59
-0.595
-0.6
-0.6
-0.585
-0.555
-0.53
-0.52
-0.53
-0.525
-0.535
-0.525
-0.485
-0.465
-0.465
-0.48
-0.475
-0.46
-0.46
-0.455
-0.475
-0.49
-0.5
-0.505
-0.505
-0.505
-0.52
-0.545
-0.57
-0.585
-0.595
-0.615
-0.64
-0.66
-0.665
-0.65
-0.635
-0.65
-0.675
-0.67
-0.66
-0.635
-0.625
-0.63
-0.645
-0.67
-0.655
-0.635
-0.61
-0.625
-0.64
-0.65
-0.65
-0.635
-0.645
-0.68
-0.71
-0.71
-0.635
-0.5
-0.32
-0.1
0.175
0.445
0.7
0.915
0.995
0.84
0.46
0.03
-0.34
-0.6
-0.71
-0.68
-0.64
-0.63
-0.61
-0.57
-0.57
-0.585
-0.615
-0.62
-0.615
-0.6
-0.595
-0.615
-0.645
-0.67
-0.655
-0.635
-0.635
-0.625
-0.635
-0.64
-0.615
-0.61
-0.6
-0.6
-0.62
-0.615
-0.595
-0.575
-0.575
-0.58
-0.605
-0.6
-0.58
-0.56
-0.54
-0.55
-0.57
-0.585
-0.57
-0.535
-0.5
-0.52
-0.55
-0.565
-0.53
-0.51
-0.49
-0.49
-0.505
-0.505
-0.485
-0.475
-0.455
-0.47
-0.485
-0.485
-0.44
-0.4
-0.38
-0.4
-0.435
-0.435
-0.415
-0.41
-0.395
-0.4
-0.42
-0.42
-0.42
-0.4
-0.4
-0.41
-0.405
-0.385
-0.375
-0.37
-0.36
-0.34
-0.345
-0.34
-0.325
-0.325
-0.325
-0.335
-0.355
-0.375
-0.38
-0.385
-0.39
-0.415
-0.455
-0.455
-0.445
-0.435
-0.43
-0.44
-0.47
-0.49
-0.485
-0.455
-0.44
-0.44
-0.465
-0.475
-0.45
-0.43
-0.42
-0.435
-0.45
-0.44
-0.425
-0.395
-0.39
-0.4
-0.41
-0.41
-0.375
-0.36
-0.345
-0.35
-0.365
-0.36
-0.34
-0.315
-0.285
-0.285
-0.29
-0.3
-0.29
-0.24
-0.215
-0.21
-0.23
-0.235
-0.22
-0.19
-0.185
-0.215
-0.245
-0.27
-0.27
-0.265
-0.27
-0.29
-0.35
-0.355
-0.37
-0.355
-0.365
-0.395
-0.43
-0.445
-0.42
-0.41
-0.425
-0.44
-0.47
-0.485
-0.455
-0.435
-0.43
-0.45
-0.46
-0.48
-0.49
-0.47
-0.47
-0.47
-0.485
-0.48
-0.48
-0.495
-0.51
-0.55
-0.545
-0.465
-0.325
-0.135
0.085
0.35
0.615
0.835
1.045
1.105
0.95
0.545
0.095
-0.28
-0.505
-0.575
-0.585
-0.555
-0.525
-0.495
-0.47
-0.445
-0.455
-0.46
-0.47
-0.47
-0.455
-0.435
-0.445
-0.46
-0.465
-0.465
-0.45
-0.445
-0.435
-0.435
-0.435
-0.45
-0.43
-0.44
-0.445
-0.455
-0.465
-0.45
-0.395
-0.365
-0.38
-0.385
-0.405
-0.405
-0.385
-0.365
-0.365
-0.38
-0.395
-0.39
-0.375
-0.345
-0.335
-0.335
-0.335
-0.335
-0.335
-0.295
-0.275
-0.285
-0.3
-0.305
-0.295
-0.275
-0.25
-0.25
-0.265
-0.25
-0.24
-0.19
-0.2
-0.18
-0.195
-0.205
-0.21
-0.18
-0.14
-0.135
-0.13
-0.14
-0.135
-0.14
-0.135
-0.15
-0.155
-0.125
-0.12
-0.12
-0.1
-0.1
-0.12
-0.115
-0.1
-0.11
-0.115
-0.15
-0.19
-0.185
-0.19
-0.175
-0.17
-0.19
-0.24
-0.245
-0.26
-0.245
-0.245
-0.28
-0.29
-0.31
-0.3
-0.29
-0.3
-0.32
-0.33
-0.325
-0.31
-0.295
-0.295
-0.295
-0.3
-0.285
-0.28
-0.255
-0.235
-0.25
-0.285
-0.31
-0.285
-0.255
-0.235
-0.245
-0.275
-0.275
-0.245
-0.21
-0.195
-0.19
-0.195
-0.175
-0.145
-0.135
-0.13
-0.145
-0.15
-0.145
-0.14
-0.125
-0.13
-0.145
-0.15
-0.16
-0.165
-0.185
-0.18
-0.185
-0.16
-0.13
-0.075
-0.005
0.07
0.125
0.17
0.24
0.33
0.435
0.535
0.615
0.705
0.8
0.935
1.1
1.255
1.365
1.48
1.615
1.72
1.735
1.675
1.6
1.555
1.565
1.595
1.635
1.65
1.655
1.625
1.57
1.45
1.205
0.805
0.36
-0.005
-0.235
-0.34
-0.405
-0.47
-0.525
-0.59
-0.645
-0.65
-0.655
-0.66
-0.68
-0.705
-0.735
-0.74
-0.74
-0.735
-0.75
-0.775
-0.795
-0.805
-0.8
-0.795
-0.81
-0.835
-0.845
-0.84
-0.83
-0.855
-0.86
-0.905
-0.915
-0.915
-0.9
-0.895
-0.93
-0.98
-1.005
-1.005
-1.01
-1.005
-1.035
-1.05
-1.065
-1.06
-1.05
-1.08
-1.105
-1.13
-1.135
-1.13
-1.115
-1.12
-1.15
-1.17
-1.15
-1.13
-1.115
-1.11
-1.11
-1.12
-1.105
-1.085
-1.06
-1.035
-1.02
-1.015
-0.99
-0.945
-0.88
-0.85
-0.825
-0.8
-0.785
-0.72
-0.65
-0.61
-0.58
-0.565
-0.54
-0.505
-0.485
-0.465
-0.46
-0.445
-0.435
-0.4
-0.39
-0.385
-0.395
-0.4
-0.39
-0.39
-0.36
-0.36
-0.38
-0.375
-0.37
-0.36
-0.34
-0.355
-0.37
-0.38
-0.375
-0.36
-0.35
-0.345
-0.37
-0.375
-0.375
-0.36
-0.37
-0.355
-0.36
-0.36
-0.36
-0.345
-0.35
-0.335
-0.33
-0.34
-0.325
-0.31
-0.29
-0.275
-0.27
-0.265
-0.245
-0.225
-0.205
-0.205
-0.22
-0.245
-0.24
-0.225
-0.195
-0.185
-0.215
-0.255
-0.25
-0.255
-0.27
-0.29
-0.315
-0.335
-0.35
-0.36
-0.35
-0.325
-0.34
-0.355
-0.36
-0.35
-0.335
-0.34
-0.345
-0.35
-0.33
-0.33
-0.325
-0.315
-0.315
-0.32
-0.315
-0.305
-0.305
-0.315
-0.325
-0.37
-0.395
-0.355
-0.255
-0.12
0.06
0.265
0.52
0.83
1.145
1.39
1.495
1.35
0.98
0.545
0.13
-0.155
-0.315
-0.34
-0.305
-0.28
-0.265
-0.255
-0.26
-0.27
-0.29
-0.285
-0.275
-0.28
-0.305
-0.33
-0.335
-0.32
-0.3
-0.295
-0.305
-0.335
-0.33
-0.31
-0.3
-0.29
-0.32
-0.34
-0.35
-0.34
-0.31
-0.305
-0.31
-0.325
-0.32
-0.31
-0.29
-0.275
-0.27
-0.29
-0.285
-0.275
-0.265
-0.245
-0.26
-0.28
-0.26
-0.25
-0.235
-0.22
-0.215
-0.23
-0.23
-0.225
-0.185
-0.17
-0.19
-0.19
-0.185
-0.155
-0.105
-0.095
-0.11
-0.13
-0.13
-0.12
-0.095
-0.07
-0.095
-0.105
-0.09
-0.065
-0.04
-0.05
-0.065
-0.07
-0.07
-0.035
-0.025
-0.005
-0.005
-0.015
-0.025
-0.04
-0.03
-0.035
-0.05
-0.075
-0.08
-0.075
-0.07
-0.06
-0.11
-0.14
-0.155
-0.16
-0.12
-0.13
-0.175
-0.22
-0.235
-0.195
-0.145
-0.115
-0.13
-0.17
-0.17
-0.175
-0.145
-0.12
-0.13
-0.135
-0.14
-0.11
-0.115
-0.11
-0.13
-0.135
-0.13
-0.12
-0.105
-0.115
-0.11
-0.1
-0.09
-0.065
-0.07
-0.08
-0.085
-0.065
-0.035
-0.005
-0.005
0.01
0.03
0.01
-0.015
-0.005
0.005
-0.015
-0.055
-0.07
-0.08
-0.11
-0.12
-0.13
-0.15
-0.175
-0.19
-0.19
-0.2
-0.21
-0.24
-0.255
-0.265
-0.24
-0.205
-0.185
-0.2
-0.235
-0.27
-0.26
-0.23
-0.215
-0.18
-0.165
-0.165
-0.17
-0.17
-0.21
-0.23
-0.245
-0.17
-0.04
0.145
0.355
0.635
0.965
1.27
1.535
1.555
1.27
0.81
0.34
-0.04
-0.255
-0.29
-0.25
-0.22
-0.23
-0.225
-0.195
-0.2
-0.215
-0.24
-0.25
-0.26
-0.24
-0.22
-0.21
-0.225
-0.255
-0.255
-0.24
-0.225
-0.225
-0.26
-0.28
-0.27
-0.25
-0.225
-0.205
-0.185
-0.195
-0.21
-0.205
-0.2
-0.195
-0.205
-0.205
-0.19
-0.19
-0.17
-0.18
-0.195
-0.22
-0.2
-0.195
-0.18
-0.175
-0.175
-0.19
-0.155
-0.13
-0.115
-0.125
-0.14
-0.14
-0.12
-0.085
-0.05
-0.04
-0.06
-0.08
-0.065
-0.04
-0.02
-0.015
-0.02
-0.035
-0.015
0.0
0.015
0.01
0.025
0.035
0.05
0.07
0.085
0.085
0.08
0.065
0.06
0.06
0.085
0.085
0.07
0.05
0.035
0.045
0.05
0.05
0.035
0.02
0.005
0.0
-0.005
-0.02
-0.05
-0.065
-0.065
-0.06
-0.055
-0.035
-0.035
-0.055
-0.065
-0.07
-0.055
-0.055
-0.07
-0.08
-0.095
-0.1
-0.085
-0.075
-0.075
-0.08
-0.1
-0.095
-0.08
-0.075
-0.105
-0.125
-0.11
-0.075
-0.065
-0.065
-0.075
-0.085
-0.08
-0.03
0.025
0.04
0.035
0.03
0.03
0.06
0.105
0.115
0.08
0.05
0.025
0.035
0.025
-0.005
-0.03
-0.075
-0.08
-0.075
-0.065
-0.075
-0.095
-0.11
-0.09
-0.065
-0.055
-0.055
-0.075
-0.11
-0.135
-0.115
-0.09
-0.055
-0.055
-0.075
-0.085
-0.085
-0.07
-0.095
-0.165
-0.215
-0.23
-0.145
0.0
0.165
0.385
0.72
1.13
1.54
1.845
1.975
1.82
1.45
1.025
0.57
0.225
0.045
-0.025
-0.055
-0.1
-0.105
-0.085
-0.065
-0.07
-0.115
-0.145
-0.145
-0.135
-0.13
-0.135
-0.145
-0.14
-0.125
-0.13
-0.115
-0.11
-0.115
-0.13
-0.135
-0.125
-0.125
-0.13
-0.135
-0.125
-0.105
-0.08
-0.075
-0.075
-0.09
-0.105
-0.12
-0.105
-0.09
-0.075
-0.07
-0.065
-0.06
-0.04
-0.045
-0.045
-0.04
-0.04
-0.05
-0.035
-0.025
-0.025
-0.025
-0.035
-0.01
0.005
0.02
0.04
0.02
0.015
0.035
0.04
0.075
0.075
0.06
0.08
0.09
0.11
0.11
0.125
0.125
0.115
0.105
0.145
0.175
0.17
0.17
0.175
0.19
0.2
0.195
0.18
0.17
0.17
0.17
0.19
0.175
0.135
0.11
0.09
0.105
0.1
0.085
0.075
0.04
0.015
0.02
0.035
0.04
0.01
-0.01
-0.01
-0.005
0.0
-0.01
-0.015
-0.015
-0.005
0.005
0.025
0.025
0.005
-0.01
-0.01
0.01
0.02
0.01
0.0
-0.01
-0.005
0.01
0.015
0.015
0.015
0.04
0.07
0.085
0.095
0.105
0.085
0.065
0.085
0.09
0.125
0.135
0.15
0.145
0.135
0.165
0.195
0.195
0.175
0.165
0.18
0.22
0.25
0.265
0.265
0.245
0.275
0.32
0.41
0.475
0.525
0.57
0.63
0.71
0.82
0.93
1.02
1.11
1.195
1.28
1.38
1.46
1.535
1.515
1.48
1.41
1.365
1.33
1.275
1.22
1.175
1.16
1.14
1.12
1.09
1.07
1.065
1.095
1.135
1.135
1.09
0.985
0.845
0.675
0.47
0.24
0.06
-0.07
-0.14
-0.165
-0.185
-0.2
-0.24
-0.29
-0.325
-0.32
-0.315
-0.35
-0.385
-0.415
-0.405
-0.39
-0.4
-0.44
-0.465
-0.465
-0.5
-0.5
-0.485
-0.485
-0.5
-0.545
-0.58
-0.57
-0.56
-0.545
-0.58
-0.615
-0.62
-0.615
-0.6
-0.6
-0.62
-0.64
-0.655
-0.66
-0.64
-0.645
-0.655
-0.69
-0.69
-0.695
-0.67
-0.665
-0.68
-0.695
-0.71
-0.7
-0.685
-0.675
-0.675
-0.685
-0.685
-0.66
-0.65
-0.655
-0.645
-0.655
-0.63
-0.59
-0.545
-0.525
-0.53
-0.54
-0.515
-0.475
-0.43
-0.395
-0.395
-0.39
-0.37
-0.305
-0.265
-0.235
-0.235
-0.235
-0.22
-0.195
-0.175
-0.17
-0.165
-0.165
-0.17
-0.16
-0.145
-0.13
-0.12
-0.105
-0.1
-0.095
-0.08
-0.08
-0.08
-0.1
-0.105
-0.09
-0.07
-0.07
-0.065
-0.1
-0.085
-0.085
-0.055
-0.08
-0.085
-0.105
-0.095
-0.075
-0.05
-0.05
-0.075
-0.095
-0.085
-0.055
-0.04
-0.045
-0.04
-0.025
-0.02
0.01
0.04
0.06
0.065
0.065
0.075
0.12
0.16
0.17
0.15
0.115
0.09
0.085
0.08
0.095
0.08
0.055
0.06
0.065
0.045
0.01
-0.05
-0.07
-0.09
-0.07
-0.07
-0.075
-0.105
-0.13
-0.135
-0.12
-0.105
-0.09
-0.12
-0.105
-0.11
-0.11
-0.1
-0.1
-0.105
-0.12
-0.135
-0.125
-0.105
-0.115
-0.165
-0.195
-0.18
-0.125
0.01
0.205
0.45
0.75
1.09
1.38
1.62
1.72
1.56
1.16
0.68
0.25
-0.02
-0.115
-0.14
-0.135
-0.11
-0.085
-0.02
0.01
-0.01
-0.05
-0.07
-0.055
-0.045
-0.05
-0.06
-0.06
-0.04
-0.01
-0.015
-0.02
-0.025
-0.035
-0.045
-0.01
0.01
0.02
0.005
-0.01
0.005
0.03
0.055
0.07
0.065
0.06
0.04
0.025
0.025
0.04
0.045
0.055
0.065
0.085
0.105
0.11
0.105
0.1
0.115
0.145
0.16
0.16
0.175
0.175
0.195
0.225
0.25
0.245
0.225
0.24
0.25
0.275
0.29
0.31
0.325
0.335
0.345
0.37
0.415
0.425
0.42
0.405
0.395
0.415
0.45
0.49
0.515
0.49
0.49
0.49
0.48
0.47
0.445
0.44
0.435
0.43
0.4
0.365
0.325
0.3
0.28
0.28
0.27
0.255
0.23
0.185
0.16
0.15
0.165
0.175
0.155
0.15
0.15
0.16
0.155
0.155
0.18
0.19
0.2
0.195
0.21
0.2
0.19
0.2
0.225
0.255
0.295
0.325
0.315
0.31
0.33
0.38
0.44
0.455
0.45
0.41
0.385
0.4
0.4
0.4
0.39
0.37
0.375
0.355
0.3
0.24
0.19
0.16
0.17
0.165
0.185
0.175
0.17
0.175
0.175
0.165
0.18
0.17
0.165
0.155
0.15
0.17
0.185
0.225
0.22
0.17
0.125
0.11
0.135
0.185
0.29
0.465
0.69
0.975
1.275
1.535
1.76
1.955
2.0
1.815
1.425
1.01
0.62
0.305
0.18
0.18
0.21
0.2
0.2
0.23
0.22
0.225
0.24
0.24
0.22
0.185
0.16
0.155
0.16
0.145
0.125
0.115
0.13
0.175
0.18
0.155
0.145
0.15
0.165
0.155
0.155
0.155
0.145
0.13
0.14
0.14
0.155
0.165
0.185
0.2
0.205
0.215
0.22
0.215
0.23
0.21
0.225
0.25
0.275
0.26
0.255
0.255
0.285
0.315
0.325
0.335
0.33
0.32
0.33
0.35
0.375
0.39
0.39
0.39
0.395
0.42
0.44
0.46
0.465
0.455
0.45
0.47
0.485
0.495
0.5
0.495
0.49
0.485
0.465
0.465
0.48
0.465
0.45
0.455
0.475
0.465
0.44
0.4
0.385
0.37
0.38
0.375
0.35
0.34
0.315
0.325
0.32
0.29
0.26
0.25
0.26
0.265
0.255
0.23
0.205
0.185
0.175
0.195
0.23
0.25
0.23
0.2
0.175
0.175
0.2
0.2
0.2
0.2
0.19
0.195
0.22
0.235
0.22
0.205
0.205
0.205
0.235
0.25
0.265
0.275
0.24
0.265
0.295
0.315
0.32
0.325
0.325
0.36
0.38
0.4
0.39
0.375
0.365
0.375
0.395
0.37
0.335
0.305
0.28
0.275
0.28
0.25
0.23
0.215
0.225
0.22
0.21
0.185
0.185
0.165
0.155
0.165
0.175
0.18
0.17
0.15
0.155
0.16
0.18
0.18
0.165
0.145
0.16
0.16
0.16
0.145
0.11
0.065
0.07
0.145
0.25
0.365
0.51
0.705
0.99
1.37
1.745
2.065
2.205
2.11
1.81
1.405
0.955
0.545
0.285
0.17
0.14
0.12
0.105
0.095
0.07
0.05
0.035
0.04
0.045
0.05
0.035
-0.005
-0.02
-0.02
0.005
0.025
0.015
0.015
-0.005
-0.005
0.005
0.005
0.0
-0.03
-0.055
-0.04
-0.015
0.0
0.01
-0.015
-0.025
-0.025
0.005
-0.005
-0.005
-0.01
0.0
0.02
0.04
0.03
0.02
0.0
-0.015
0.005
0.03
0.04
0.015
0.02
0.01
0.005
0.015
0.02
0.035
0.04
0.055
0.065
0.085
0.1
0.085
0.07
0.06
0.075
0.08
0.105
0.105
0.11
0.13
0.17
0.19
0.175
0.14
0.115
0.145
0.2
0.25
0.235
0.205
0.19
0.175
0.17
0.185
0.17
0.165
0.135
0.115
0.12
0.135
0.13
0.085
0.055
0.055
0.05
0.035
0.035
0.05
0.03
-0.01
-0.03
-0.025
0.0
0.0
-0.035
-0.055
-0.04
-0.015
0.015
-0.005
-0.015
0.015
0.03
0.045
0.03
0.02
-0.005
-0.03
-0.01
0.015
0.025
0.0
-0.01
-0.03
-0.005
0.03
0.055
0.07
0.06
0.055
0.07
0.1
0.13
0.145
0.155
0.155
0.17
0.19
0.21
0.225
0.225
0.195
0.215
0.24
0.26
0.275
0.325
0.395
0.46
0.53
0.59
0.65
0.71
0.78
0.865
0.945
1.04
1.165
1.265
1.335
1.405
1.51
1.565
1.55
1.485
1.405
1.35
1.29
1.25
1.19
1.105
1.055
1.01
0.965
0.92
0.855
0.805
0.79
0.77
0.74
0.72
0.68
0.61
0.55
0.455
0.34
0.185
0.015
-0.135
-0.255
-0.335
-0.4
-0.455
-0.49
-0.515
-0.52
-0.53
-0.515
-0.525
-0.55
-0.605
-0.62
-0.615
-0.6
-0.6
-0.645
-0.665
-0.685
-0.675
-0.675
-0.675
-0.69
-0.72
-0.725
-0.71
-0.695
-0.715
-0.75
-0.785
-0.815
-0.81
-0.79
-0.78
-0.79
-0.815
-0.815
-0.835
-0.84
-0.85
-0.855
-0.84
-0.85
-0.855
-0.855
-0.865
-0.88
-0.875
-0.865
-0.86
-0.875
-0.895
-0.9
-0.905
-0.895
-0.885
-0.855
-0.825
-0.805
-0.79
-0.77
-0.75
-0.72
-0.695
-0.685
-0.655
-0.64
-0.6
-0.55
-0.545
-0.535
-0.51
-0.485
-0.445
-0.4
-0.37
-0.36
-0.375
-0.375
-0.355
-0.31
-0.285
-0.29
-0.295
-0.285
-0.245
-0.215
-0.21
-0.235
-0.23
-0.24
-0.22
-0.185
-0.175
-0.18
-0.21
-0.215
-0.2
-0.175
-0.17
-0.16
-0.175
-0.19
-0.19
-0.155
-0.14
-0.135
-0.16
-0.165
-0.155
-0.115
-0.11
-0.115
-0.11
-0.105
-0.11
-0.115
-0.11
-0.125
-0.14
-0.135
-0.11
-0.1
-0.11
-0.11
-0.105
-0.105
-0.115
-0.12
-0.105
-0.115
-0.105
-0.115
-0.105
-0.055
-0.035
-0.04
-0.06
-0.05
-0.02
0.02
0.045
0.075
0.07
0.08
0.08
0.05
0.03
0.045
0.065
0.065
0.075
0.105
0.11
0.08
0.035
-0.03
-0.07
-0.09
-0.085
-0.08
-0.11
-0.125
-0.115
-0.1
-0.1
-0.105
-0.115
-0.12
-0.1
-0.07
-0.055
-0.045
-0.04
-0.02
-0.04
-0.03
-0.005
0.015
0.03
0.01
-0.025
0.0
0.065
0.155
0.25
0.4
0.635
0.91
1.14
1.34
1.53
1.64
1.515
1.185
0.76
0.32
-0.035
-0.24
-0.265
-0.21
-0.17
-0.16
-0.14
-0.13
-0.13
-0.155
-0.16
-0.16
-0.15
-0.125
-0.11
-0.135
-0.19
-0.195
-0.155
-0.145
-0.155
-0.16
-0.16
-0.155
-0.135
-0.12
-0.115
-0.08
-0.04
-0.05
-0.115
-0.135
-0.1
-0.04
-0.03
-0.005
0.01
0.01
-0.005
-0.03
-0.055
-0.07
-0.07
-0.045
-0.015
0.005
0.01
0.005
-0.035
-0.075
-0.045
0.035
0.07
0.045
-0.02
-0.055
-0.03
0.01
0.06
0.075
0.085
0.085
0.095
0.09
0.105
0.16
0.245
0.275
0.275
0.26
0.26
0.3
0.315
0.32
0.335
0.355
0.345
0.31
0.325
0.345
0.395
0.435
0.42
0.35
0.315
0.295
0.305
0.33
0.31
0.25
0.19
0.145
0.145
0.14
0.15
0.135
0.1
0.05
0.035
0.045
0.065
0.035
0.005
-0.015
-0.025
-0.035
-0.035
-0.04
-0.08
-0.1
-0.105
-0.05
-0.06
-0.105
-0.145
-0.14
-0.105
-0.07
-0.05
-0.055
-0.105
-0.155
-0.14
-0.115
-0.1
-0.125
-0.13
-0.11
-0.075
-0.05
-0.01
-0.01
-0.01
-0.015
0.0
0.015
0.005
0.01
0.01
0.03
0.075
0.085
0.07
0.015
-0.03
-0.065
-0.05
0.025
0.08
0.07
0.025
0.005
-0.01
-0.025
-0.045
-0.09
-0.125
-0.135
-0.14
-0.145
-0.175
-0.21
-0.22
-0.23
-0.235
-0.215
-0.205
-0.235
-0.255
-0.235
-0.19
-0.14
-0.155
-0.185
-0.195
-0.185
-0.145
-0.125
-0.11
-0.125
-0.165
-0.19
-0.16
-0.125
-0.085
-0.01
0.11
0.27
0.47
0.695
0.925
1.195
1.425
1.465
1.245
0.835
0.34
-0.065
-0.3
-0.36
-0.36
-0.355
-0.34
-0.33
-0.305
-0.26
-0.255
-0.265
-0.32
-0.385
-0.425
-0.435
-0.43
-0.43
-0.46
-0.48
-0.48
-0.465
-0.435
-0.425
-0.435
-0.465
-0.475
-0.465
-0.43
-0.41
-0.445
-0.45
-0.425
-0.415
-0.41
-0.42
-0.455
-0.47
-0.45
-0.415
-0.375
-0.385
-0.405
-0.42
-0.415
-0.425
-0.415
-0.4
-0.385
-0.385
-0.415
-0.44
-0.455
-0.43
-0.43
-0.435
-0.43
-0.38
-0.325
-0.29
-0.255
-0.29
-0.295
-0.285
-0.26
-0.245
-0.235
-0.22
-0.22
-0.235
-0.205
-0.15
-0.12
-0.135
-0.15
-0.145
-0.1
-0.095
-0.125
-0.14
-0.125
-0.08
-0.06
-0.02
-0.02
-0.005
-0.01
-0.005
-0.02
-0.04
-0.09
-0.165
-0.24
-0.285
-0.29
-0.275
-0.27
-0.28
-0.26
-0.245
-0.23
-0.23
-0.225
-0.235
-0.255
-0.275
-0.275
-0.25
-0.25
-0.275
-0.34
-0.365
-0.365
-0.36
-0.345
-0.36
-0.365
-0.35
-0.335
-0.315
-0.335
-0.33
-0.33
-0.295
-0.245
-0.205
-0.23
-0.285
-0.295
-0.305
-0.26
-0.22
-0.19
-0.185
-0.22
-0.26
-0.275
-0.29
-0.305
-0.31
-0.285
-0.255
-0.245
-0.255
-0.245
-0.225
-0.2
-0.19
-0.165
-0.135
-0.125
-0.115
-0.125
-0.15
-0.145
-0.12
-0.07
-0.065
-0.07
-0.07
-0.055
-0.05
-0.045
-0.075
-0.095
-0.105
-0.08
-0.09
-0.115
-0.17
-0.22
-0.225
-0.22
-0.2
-0.18
-0.18
-0.2
-0.235
-0.265
-0.255
-0.24
-0.25
-0.265
-0.295
-0.29
-0.24
-0.22
-0.245
-0.28
-0.275
-0.265
-0.25
-0.23
-0.235
-0.235
-0.22
-0.185
-0.115
-0.025
0.105
0.265
0.47
0.72
1.01
1.27
1.465
1.51
1.34
0.98
0.545
0.105
-0.185
-0.315
-0.32
-0.285
-0.255
-0.255
-0.265
-0.245
-0.23
-0.25
-0.265
-0.28
-0.285
-0.305
-0.325
-0.34
-0.325
-0.33
-0.325
-0.335
-0.315
-0.305
-0.29
-0.26
-0.28
-0.325
-0.335
-0.32
-0.28
-0.265
-0.29
-0.31
-0.33
-0.31
-0.285
-0.26
-0.26
-0.28
-0.31
-0.295
-0.305
-0.29
-0.27
-0.265
-0.28
-0.24
-0.21
-0.185
-0.195
-0.21
-0.215
-0.2
-0.18
-0.155
-0.165
-0.175
-0.165
-0.125
-0.09
-0.075
-0.085
-0.085
-0.075
-0.03
-0.015
0.01
0.01
-0.005
-0.025
-0.005
0.025
0.05
0.045
0.035
0.04
0.055
0.065
0.075
0.07
0.065
0.07
0.095
0.115
0.125
0.085
0.05
0.04
0.035
0.025
-0.005
-0.02
-0.07
-0.07
-0.07
-0.065
-0.07
-0.085
-0.115
-0.125
-0.15
-0.145
-0.14
-0.14
-0.16
-0.16
-0.16
-0.15
-0.15
-0.155
-0.195
-0.19
-0.175
-0.16
-0.145
-0.155
-0.155
-0.16
-0.14
-0.13
-0.13
-0.11
-0.12
-0.125
-0.13
-0.12
-0.135
-0.13
-0.15
-0.155
-0.165
-0.14
-0.13
-0.135
-0.145
-0.15
-0.14
-0.13
-0.125
-0.155
-0.19
-0.19
-0.175
-0.125
-0.11
-0.13
-0.155
-0.155
-0.14
-0.12
-0.095
-0.085
-0.08
-0.09
-0.08
-0.08
-0.065
-0.03
-0.01
0.0
0.01
0.035
0.06
0.075
0.085
0.06
0.065
0.04
0.005
-0.01
-0.04
-0.07
-0.09
-0.09
-0.095
-0.095
-0.1
-0.085
-0.08
-0.085
-0.11
-0.125
-0.13
-0.115
-0.095
-0.055
-0.095
-0.165
-0.235
-0.25
-0.23
-0.18
-0.17
-0.165
-0.16
-0.15
-0.16
-0.17
-0.175
-0.185
-0.135
-0.045
0.105
0.32
0.575
0.83
1.08
1.3
1.5
1.675
1.67
1.435
1.04
0.595
0.225
-0.02
-0.12
-0.175
-0.21
-0.24
-0.255
-0.225
-0.215
-0.215
-0.22
-0.235
-0.235
-0.215
-0.215
-0.24
-0.255
-0.275
-0.28
-0.255
-0.27
-0.28
-0.275
-0.21
-0.17
-0.155
-0.155
-0.15
-0.17
-0.21
-0.25
-0.28
-0.27
-0.26
-0.25
-0.26
-0.27
-0.23
-0.215
-0.205
-0.25
-0.29
-0.28
-0.25
-0.215
-0.205
-0.205
-0.24
-0.245
-0.225
-0.18
-0.15
-0.17
-0.2
-0.205
-0.15
-0.105
-0.115
-0.125
-0.135
-0.11
-0.11
-0.12
-0.145
-0.13
-0.11
-0.07
-0.045
-0.04
-0.04
-0.035
-0.01
-0.015
-0.04
-0.045
-0.03
-0.005
0.03
0.05
0.055
0.06
0.045
0.035
0.06
0.065
0.04
0.02
-0.025
-0.06
-0.085
-0.085
-0.09
-0.11
-0.145
-0.18
-0.195
-0.205
-0.19
-0.18
-0.21
-0.23
-0.23
-0.2
-0.175
-0.165
-0.175
-0.185
-0.155
-0.135
-0.115
-0.115
-0.13
-0.145
-0.155
-0.15
-0.16
-0.165
-0.17
-0.175
-0.185
-0.16
-0.15
-0.145
-0.165
-0.185
-0.185
-0.18
-0.16
-0.145
-0.12
-0.11
-0.125
-0.13
-0.125
-0.14
-0.155
-0.16
-0.175
-0.155
-0.15
-0.125
-0.13
-0.12
-0.105
-0.09
-0.105
-0.13
-0.125
-0.11
-0.105
-0.05
-0.025
-0.02
-0.045
-0.065
-0.085
-0.035
0.01
0.005
-0.03
-0.055
-0.07
-0.065
-0.06
-0.08
-0.11
-0.13
-0.14
-0.145
-0.135
-0.145
-0.145
-0.16
-0.15
-0.14
-0.145
-0.155
-0.185
-0.2
-0.22
-0.21
-0.2
-0.195
-0.18
-0.19
-0.205
-0.18
-0.17
-0.18
-0.205
-0.215
-0.215
-0.145
-0.04
0.13
0.3
0.515
0.765
1.045
1.315
1.51
1.545
1.32
0.94
0.525
0.17
-0.045
-0.15
-0.205
-0.235
-0.25
-0.225
-0.195
-0.185
-0.175
-0.185
-0.185
-0.19
-0.195
-0.215
-0.22
-0.215
-0.19
-0.165
-0.175
-0.2
-0.225
-0.215
-0.195
-0.16
-0.16
-0.185
-0.2
-0.195
-0.18
-0.175
-0.175
-0.195
-0.215
-0.215
-0.19
-0.165
-0.175
-0.175
-0.175
-0.165
-0.135
-0.12
-0.155
-0.18
-0.195
-0.175
-0.15
-0.13
-0.125
-0.145
-0.155
-0.13
-0.12
-0.105
-0.11
-0.125
-0.12
-0.095
-0.065
-0.04
-0.02
-0.01
-0.005
-0.01
0.005
0.035
0.055
0.035
0.02
0.03
0.045
0.07
0.1
0.11
0.105
0.1
0.09
0.105
0.12
0.1
0.1
0.11
0.15
0.165
0.175
0.14
0.1
0.075
0.07
0.075
0.075
0.06
0.025
0.0
-0.02
-0.03
-0.06
-0.085
-0.12
-0.115
-0.085
-0.08
-0.095
-0.115
-0.125
-0.105
-0.065
-0.05
-0.07
-0.095
-0.12
-0.125
-0.11
-0.09
-0.09
-0.09
-0.09
-0.095
-0.09
-0.09
-0.08
-0.105
-0.135
-0.14
-0.105
-0.065
-0.07
-0.08
-0.115
-0.12
-0.105
-0.075
-0.05
-0.065
-0.08
-0.08
-0.045
0.0
0.02
0.01
0.005
0.02
0.045
0.08
0.09
0.065
0.03
0.025
0.05
0.075
0.07
0.035
0.015
0.005
0.005
0.01
-0.01
-0.01
-0.01
0.005
0.045
0.07
0.1
0.13
0.175
0.235
0.335
0.445
0.54
0.6
0.65
0.7
0.775
0.88
0.94
0.975
1.02
1.105
1.235
1.355
1.38
1.35
1.305
1.355
1.44
1.525
1.585
1.605
1.655
1.71
1.715
1.54
1.17
0.74
0.41
0.2
0.025
-0.095
-0.17
-0.255
-0.33
-0.365
-0.385
-0.415
-0.455
-0.48
-0.5
-0.52
-0.52
-0.52
-0.515
-0.545
-0.55
-0.535
-0.515
-0.525
-0.555
-0.605
-0.625
-0.615
-0.59
-0.59
-0.605
-0.61
-0.645
-0.665
-0.675
-0.67
-0.65
-0.68
-0.695
-0.685
-0.69
-0.705
-0.73
-0.73
-0.745
-0.755
-0.76
-0.755
-0.76
-0.78
-0.825
-0.81
-0.795
-0.775
-0.775
-0.8
-0.835
-0.83
-0.785
-0.755
-0.775
-0.815
-0.83
-0.8
-0.75
-0.73
-0.73
-0.755
-0.75
-0.73
-0.695
-0.68
-0.65
-0.655
-0.655
-0.615
-0.58
-0.535
-0.52
-0.5
-0.5
-0.455
-0.435
-0.41
-0.38
-0.38
-0.365
-0.375
-0.395
-0.38
-0.365
-0.35
-0.33
-0.32
-0.325
-0.33
-0.335
-0.34
-0.355
-0.365
-0.355
-0.355
-0.335
-0.34
-0.345
-0.365
-0.365
-0.345
-0.34
-0.35
-0.36
-0.36
-0.34
-0.325
-0.325
-0.345
-0.36
-0.355
-0.325
-0.29
-0.27
-0.3
-0.33
-0.32
-0.31
-0.295
-0.295
-0.29
-0.29
-0.27
-0.265
-0.255
-0.24
-0.225
-0.21
-0.215
-0.215
-0.2
-0.18
-0.15
-0.14
-0.115
-0.095
-0.09
-0.09
-0.095
-0.115
-0.135
-0.11
-0.11
-0.125
-0.155
-0.185
-0.195
-0.195
-0.19
-0.21
-0.235
-0.24
-0.245
-0.245
-0.255
-0.275
-0.31
-0.305
-0.27
-0.205
-0.175
-0.195
-0.245
-0.28
-0.295
-0.27
-0.255
-0.24
-0.25
-0.27
-0.28
-0.28
-0.265
-0.25
-0.19
-0.12
0.025
0.215
0.455
0.755
1.03
1.275
1.45
1.39
1.085
0.645
0.165
-0.215
-0.385
-0.38
-0.325
-0.3
-0.295
-0.305
-0.28
-0.265
-0.255
-0.255
-0.26
-0.27
-0.275
-0.265
-0.255
-0.265
-0.285
-0.29
-0.3
-0.275
-0.25
-0.24
-0.24
-0.25
-0.275
-0.27
-0.255
-0.245
-0.235
-0.245
-0.255
-0.245
-0.225
-0.225
-0.23
-0.225
-0.215
-0.215
-0.22
-0.225
-0.21
-0.2
-0.2
-0.21
-0.205
-0.195
-0.185
-0.2
-0.195
-0.165
-0.115
-0.085
-0.09
-0.095
-0.1
-0.08
-0.05
-0.03
-0.02
-0.04
-0.03
-0.005
0.015
0.03
0.035
0.035
0.025
0.05
0.085
0.11
0.105
0.105
0.095
0.115
0.125
0.155
0.14
0.1
0.11
0.105
0.11
0.085
0.035
0.035
0.04
0.04
0.025
0.0
-0.045
-0.09
-0.075
-0.085
-0.05
-0.095
-0.14
-0.16
-0.185
-0.165
-0.18
-0.175
-0.19
-0.19
-0.19
-0.185
-0.19
-0.18
-0.195
-0.195
-0.19
-0.18
-0.175
-0.19
-0.21
-0.225
-0.215
-0.195
-0.17
-0.175
-0.18
-0.175
-0.16
-0.165
-0.15
-0.125
-0.135
-0.14
-0.115
-0.09
-0.055
-0.05
-0.05
-0.03
-0.025
-0.03
-0.015
-0.02
-0.025
-0.05
-0.055
-0.05
-0.04
-0.04
-0.075
-0.095
-0.1
-0.12
-0.135
-0.135
-0.15
-0.175
-0.21
-0.215
-0.195
-0.185
-0.195
-0.21
-0.215
-0.23
-0.21
-0.23
-0.235
-0.245
-0.25
-0.225
-0.205
-0.21
-0.22
-0.235
-0.235
-0.235
-0.195
-0.11
0.02
0.2
0.435
0.72
1.02
1.285
1.48
1.565
1.435
1.1
0.645
0.18
-0.205
-0.355
-0.36
-0.295
-0.245
-0.255
-0.27
-0.275
-0.275
-0.245
-0.235
-0.24
-0.26
-0.285
-0.295
-0.28
-0.245
-0.235
-0.25
-0.28
-0.275
-0.265
-0.25
-0.27
-0.27
-0.27
-0.265
-0.235
-0.225
-0.225
-0.235
-0.24
-0.23
-0.225
-0.225
-0.235
-0.245
-0.24
-0.23
-0.205
-0.2
-0.2
-0.215
-0.21
-0.2
-0.18
-0.17
-0.155
-0.155
-0.175
-0.16
-0.145
-0.115
-0.105
-0.085
-0.09
-0.085
-0.065
-0.04
-0.03
-0.035
-0.03
-0.01
0.005
0.035
0.04
0.025
0.005
0.025
0.045
0.065
0.1
0.08
0.07
0.055
0.07
0.085
0.095
0.075
0.07
0.05
0.04
0.05
0.01
-0.02
-0.06
-0.08
-0.075
-0.06
-0.06
-0.11
-0.12
-0.13
-0.13
-0.125
-0.135
-0.155
-0.175
-0.185
-0.165
-0.145
-0.15
-0.16
-0.165
-0.165
-0.18
-0.155
-0.155
-0.155
-0.16
-0.16
-0.175
-0.165
-0.155
-0.14
-0.145
-0.14
-0.155
-0.11
-0.095
-0.095
-0.09
-0.07
-0.045
0.0
0.03
0.03
0.05
0.045
0.055
0.055
0.05
0.015
0.005
0.005
0.0
0.01
-0.005
-0.04
-0.08
-0.11
-0.105
-0.1
-0.115
-0.13
-0.125
-0.12
-0.115
-0.115
-0.125
-0.145
-0.155
-0.15
-0.13
-0.11
-0.105
-0.13
-0.155
-0.17
-0.175
-0.12
-0.115
-0.12
-0.15
-0.17
-0.14
-0.06
0.045
0.15
0.29
0.475
0.7
0.955
1.195
1.405
1.5
1.43
1.115
0.715
0.305
-0.015
-0.215
-0.255
-0.25
-0.235
-0.23
-0.23
-0.225
-0.2
-0.18
-0.17
-0.185
-0.21
-0.215
-0.23
-0.215
-0.2
-0.195
-0.205
-0.21
-0.22
-0.19
-0.19
-0.195
-0.18
-0.195
-0.195
-0.195
-0.185
-0.19
-0.195
-0.21
-0.195
-0.17
-0.15
-0.14
-0.15
-0.19
-0.185
-0.175
-0.145
-0.135
-0.16
-0.165
-0.155
-0.14
-0.125
-0.11
-0.11
-0.105
-0.09
-0.09
-0.065
-0.065
-0.065
-0.09
-0.085
-0.06
-0.03
-0.015
-0.015
-0.02
0.0
0.01
0.04
0.04
0.035
0.03
0.03
0.075
0.105
0.12
0.11
0.1
0.085
0.1
0.12
0.12
0.115
0.115
0.105
0.11
0.105
0.09
0.065
0.07
0.085
0.095
0.095
0.05
0.02
-0.01
-0.035
-0.05
-0.055
-0.05
-0.06
-0.085
-0.085
-0.09
-0.095
-0.105
-0.145
-0.16
-0.15
-0.14
-0.135
-0.13
-0.145
-0.155
-0.16
-0.145
-0.125
-0.1
-0.125
-0.165
-0.165
-0.14
-0.12
-0.125
-0.135
-0.135
-0.135
-0.115
-0.105
-0.09
-0.125
-0.125
-0.105
-0.07
-0.04
-0.025
-0.02
-0.04
-0.03
-0.005
0.02
0.035
0.02
0.005
0.005
-0.005
0.015
0.0
-0.005
0.0
0.0
0.015
-0.01
-0.025
-0.075
-0.085
-0.095
-0.095
-0.105
-0.13
-0.145
-0.175
-0.185
-0.17
-0.17
-0.175
-0.19
-0.21
-0.195
-0.18
-0.165
-0.175
-0.19
-0.215
-0.225
-0.195
-0.175
-0.155
-0.155
-0.145
-0.15
-0.145
-0.135
-0.15
-0.15
-0.115
-0.055
0.06
0.215
0.405
0.615
0.87
1.14
1.37
1.52
1.51
1.28
0.89
0.49
0.155
-0.07
-0.17
-0.215
-0.25
-0.275
-0.295
-0.28
-0.25
-0.23
-0.24
-0.24
-0.24
-0.235
-0.235
-0.25
-0.285
-0.3
-0.275
-0.25
-0.25
-0.255
-0.27
-0.265
-0.24
-0.23
-0.23
-0.24
-0.24
-0.23
-0.23
-0.235
-0.225
-0.25
-0.25
-0.255
-0.23
-0.215
-0.195
-0.205
-0.225
-0.245
-0.225
-0.205
-0.205
-0.22
-0.215
-0.195
-0.185
-0.15
-0.13
-0.15
-0.165
-0.175
-0.145
-0.125
-0.125
-0.12
-0.14
-0.11
-0.08
-0.065
-0.075
-0.085
-0.09
-0.08
-0.035
-0.01
0.01
0.0
-0.005
0.01
0.035
0.055
0.05
0.055
0.045
0.065
0.09
0.115
0.095
0.085
0.075
0.09
0.105
0.13
0.115
0.08
0.065
0.04
0.04
0.075
0.085
0.065
0.04
0.01
0.005
0.01
-0.02
-0.03
-0.08
-0.1
-0.1
-0.085
-0.085
-0.12
-0.155
-0.19
-0.18
-0.15
-0.14
-0.15
-0.16
-0.155
-0.15
-0.13
-0.145
-0.17
-0.19
-0.16
-0.145
-0.125
-0.135
-0.14
-0.155
-0.14
-0.135
-0.135
-0.13
-0.14
-0.135
-0.15
-0.115
-0.105
-0.11
-0.11
-0.12
-0.105
-0.075
-0.055
-0.05
-0.045
-0.05
-0.045
-0.01
0.045
0.055
0.015
0.01
0.01
0.035
0.045
0.035
0.035
0.01
0.02
0.025
0.02
-0.005
-0.055
-0.11
-0.145
-0.145
-0.115
-0.115
-0.13
-0.14
-0.16
-0.155
-0.15
-0.16
-0.165
-0.17
-0.18
-0.16
-0.155
-0.155
-0.15
-0.14
-0.16
-0.195
-0.18
-0.165
-0.16
-0.155
-0.15
-0.165
-0.15
-0.115
-0.035
0.04
0.145
0.31
0.525
0.78
1.07
1.325
1.535
1.6
1.435
1.115
0.71
0.315
-0.02
-0.215
-0.285
-0.29
-0.305
-0.315
-0.325
-0.28
-0.225
-0.2
-0.22
-0.225
-0.22
-0.21
-0.2
-0.21
-0.225
-0.235
-0.23
-0.245
-0.23
-0.23
-0.24
-0.245
-0.245
-0.225
-0.205
-0.22
-0.215
-0.245
-0.23
-0.215
-0.21
-0.2
-0.21
-0.22
-0.23
-0.2
-0.17
-0.165
-0.17
-0.17
-0.175
-0.175
-0.165
-0.155
-0.16
-0.175
-0.195
-0.18
-0.155
-0.11
-0.12
-0.125
-0.125
-0.115
-0.07
-0.06
-0.09
-0.075
-0.07
-0.03
-0.025
-0.015
0.0
0.01
0.025
0.04
0.06
0.065
0.05
0.04
0.045
0.075
0.09
0.095
0.085
0.08
0.09
0.12
0.12
0.125
0.125
0.105
0.1
0.105
0.12
0.115
0.085
0.04
0.02
0.005
0.01
0.0
-0.015
-0.03
-0.04
-0.04
-0.035
-0.05
-0.085
-0.11
-0.105
-0.08
-0.065
-0.085
-0.125
-0.155
-0.13
-0.1
-0.07
-0.095
-0.125
-0.145
-0.14
-0.12
-0.095
-0.115
-0.13
-0.155
-0.165
-0.135
-0.115
-0.1
-0.11
-0.12
-0.135
-0.125
-0.105
-0.095
-0.1
-0.105
-0.09
-0.05
-0.01
-0.02
-0.045
-0.06
-0.04
-0.015
0.04
0.07
0.06
0.04
0.035
0.035
0.045
0.055
0.055
0.075
0.085
0.08
0.04
-0.005
-0.03
-0.03
-0.04
-0.06
-0.075
-0.09
-0.095
-0.115
-0.135
-0.135
-0.135
-0.13
-0.15
-0.15
-0.145
-0.135
-0.115
-0.105
-0.115
-0.125
-0.115
-0.12
-0.1
-0.105
-0.12
-0.145
-0.15
-0.135
-0.115
-0.13
-0.16
-0.17
-0.095
0.04
0.205
0.385
0.585
0.835
1.105
1.41
1.69
1.845
1.79
1.515
1.155
0.765
0.36
0.05
-0.115
-0.185
-0.195
-0.19
-0.185
-0.185
-0.175
-0.16
-0.145
-0.155
-0.135
-0.135
-0.15
-0.165
-0.17
-0.165
-0.16
-0.16
-0.16
-0.17
-0.18
-0.195
-0.195
-0.185
-0.15
-0.15
-0.145
-0.14
-0.125
-0.13
-0.155
-0.165
-0.165
-0.15
-0.13
-0.135
-0.15
-0.16
-0.125
-0.11
-0.1
-0.075
-0.065
-0.08
-0.085
-0.08
-0.07
-0.055
-0.065
-0.09
-0.08
-0.065
-0.04
-0.025
-0.05
-0.05
-0.045
-0.015
0.02
0.035
0.025
0.01
0.02
0.04
0.07
0.09
0.1
0.09
0.095
0.1
0.1
0.115
0.12
0.11
0.125
0.135
0.165
0.17
0.15
0.125
0.12
0.155
0.165
0.17
0.15
0.145
0.135
0.135
0.14
0.135
0.125
0.1
0.095
0.09
0.095
0.07
0.055
0.03
0.01
0.015
0.01
-0.005
-0.025
-0.065
-0.08
-0.09
-0.085
-0.085
-0.115
-0.1
-0.08
-0.055
-0.04
-0.06
-0.085
-0.095
-0.09
-0.09
-0.08
-0.075
-0.11
-0.115
-0.13
-0.125
-0.11
-0.1
-0.125
-0.115
-0.105
-0.075
-0.06
-0.08
-0.11
-0.11
-0.065
0.01
0.045
0.035
0.01
0.01
0.025
0.065
0.105
0.12
0.145
0.15
0.175
0.2
0.235
0.28
0.315
0.315
0.375
0.47
0.57
0.63
0.695
0.78
0.865
0.92
0.985
1.03
1.08
1.16
1.24
1.33
1.43
1.47
1.46
1.42
1.34
1.275
1.215
1.165
1.095
1.04
0.99
0.965
0.93
0.895
0.845
0.785
0.725
0.715
0.75
0.775
0.755
0.71
0.655
0.55
0.445
0.29
0.14
-0.015
-0.145
-0.255
-0.34
-0.425
-0.475
-0.51
-0.515
-0.505
-0.5
-0.535
-0.585
-0.625
-0.61
-0.605
-0.605
-0.61
-0.65
-0.69
-0.695
-0.69
-0.705
-0.695
-0.7
-0.735
-0.75
-0.75
-0.75
-0.74
-0.745
-0.775
-0.795
-0.785
-0.795
-0.82
-0.825
-0.845
-0.845
-0.845
-0.845
-0.835
-0.84
-0.87
-0.87
-0.865
-0.85
-0.83
-0.83
-0.845
-0.86
-0.845
-0.81
-0.795
-0.81
-0.805
-0.77
-0.72
-0.675
-0.66
-0.65
-0.625
-0.615
-0.58
-0.535
-0.52
-0.5
-0.465
-0.43
-0.39
-0.335
-0.31
-0.3
-0.32
-0.335
-0.31
-0.275
-0.25
-0.26
-0.285
-0.275
-0.265
-0.255
-0.25
-0.265
-0.275
-0.255
-0.235
-0.235
-0.245
-0.25
-0.245
-0.235
-0.225
-0.23
-0.22
-0.215
-0.23
-0.245
-0.24
-0.23
-0.22
-0.21
-0.19
-0.175
-0.175
-0.2
-0.215
-0.235
-0.215
-0.195
-0.175
-0.16
-0.155
-0.18
-0.195
-0.2
-0.18
-0.155
-0.15
-0.16
-0.175
-0.18
-0.175
-0.17
-0.165
-0.165
-0.16
-0.16
-0.15
-0.15
-0.15
-0.155
-0.155
-0.15
-0.135
-0.11
-0.11
-0.1
-0.085
-0.065
-0.045
-0.01
-0.03
-0.02
-0.01
-0.005
0.02
0.045
0.045
0.025
0.015
0.015
0.015
0.025
0.015
-0.035
-0.065
-0.065
-0.08
-0.06
-0.065
-0.08
-0.105
-0.115
-0.11
-0.11
-0.12
-0.145
-0.175
-0.17
-0.15
-0.13
-0.135
-0.145
-0.18
-0.18
-0.16
-0.13
-0.13
-0.145
-0.155
-0.155
-0.135
-0.11
-0.12
-0.13
-0.135
-0.11
-0.025
0.12
0.29
0.505
0.72
0.96
1.22
1.435
1.585
1.55
1.27
0.855
0.43
0.09
-0.085
-0.14
-0.175
-0.2
-0.2
-0.17
-0.15
-0.145
-0.17
-0.175
-0.15
-0.14
-0.145
-0.175
-0.2
-0.215
-0.175
-0.155
-0.14
-0.16
-0.185
-0.18
-0.165
-0.13
-0.125
-0.14
-0.16
-0.175
-0.16
-0.115
-0.105
-0.12
-0.13
-0.145
-0.13
-0.115
-0.1
-0.095
-0.105
-0.13
-0.11
-0.08
-0.07
-0.05
-0.08
-0.09
-0.075
-0.055
-0.065
-0.04
-0.03
-0.02
-0.005
0.02
0.045
0.065
0.06
0.075
0.11
0.14
0.155
0.15
0.15
0.15
0.18
0.2
0.22
0.23
0.22
0.23
0.24
0.265
0.28
0.28
0.28
0.295
0.3
0.325
0.32
0.325
0.295
0.295
0.28
0.27
0.25
0.255
0.23
0.2
0.16
0.135
0.135
0.11
0.115
0.105
0.085
0.07
0.03
0.025
0.015
0.005
-0.01
-0.005
0.005
0.0
-0.005
-0.015
-0.015
-0.035
-0.04
-0.055
-0.045
-0.035
-0.025
-0.015
-0.025
-0.03
-0.03
-0.03
-0.03
-0.025
-0.025
-0.045
-0.05
-0.055
-0.03
-0.02
-0.005
0.015
0.045
0.07
0.085
0.085
0.1
0.095
0.095
0.09
0.1
0.115
0.13
0.12
0.105
0.095
0.07
0.075
0.05
0.0
0.005
-0.03
-0.025
-0.035
-0.04
-0.055
-0.06
-0.08
-0.095
-0.09
-0.09
-0.105
-0.105
-0.11
-0.11
-0.1
-0.095
-0.115
-0.125
-0.115
-0.12
-0.115
-0.13
-0.145
-0.135
-0.12
-0.095
-0.08
-0.085
-0.1
-0.075
0.015
0.14
0.295
0.485
0.695
0.945
1.22
1.445
1.59
1.535
1.215
0.815
0.445
0.145
-0.04
-0.155
-0.2
-0.24
-0.255
-0.25
-0.225
-0.17
-0.155
-0.15
-0.145
-0.145
-0.14
-0.17
-0.18
-0.175
-0.18
-0.16
-0.15
-0.145
-0.165
-0.18
-0.18
-0.165
-0.16
-0.17
-0.155
-0.145
-0.14
-0.12
-0.11
-0.12
-0.155
-0.165
-0.145
-0.12
-0.095
-0.1
-0.125
-0.15
-0.135
-0.115
-0.085
-0.08
-0.08
-0.095
-0.105
-0.09
-0.06
-0.045
-0.05
-0.055
-0.075
-0.045
-0.02
0.005
0.005
-0.005
0.01
0.03
0.045
0.055
0.045
0.04
0.06
0.09
0.11
0.12
0.12
0.105
0.105
0.125
0.14
0.15
0.135
0.115
0.12
0.125
0.15
0.17
0.165
0.16
0.14
0.135
0.135
0.125
0.105
0.09
0.095
0.09
0.115
0.08
0.065
0.035
0.01
0.015
0.0
-0.015
-0.035
-0.045
-0.065
-0.08
-0.065
-0.075
-0.09
-0.09
-0.09
-0.085
-0.095
-0.1
-0.12
-0.13
-0.13
-0.1
-0.07
-0.06
-0.09
-0.105
-0.1
-0.085
-0.065
-0.055
-0.07
-0.085
-0.1
-0.06
-0.03
-0.03
-0.045
-0.065
-0.065
-0.065
-0.045
-0.05
-0.06
-0.06
-0.035
-0.015
0.02
0.035
0.01
-0.01
-0.005
0.015
0.06
0.085
0.12
0.12
0.12
0.11
0.12
0.125
0.125
0.115
0.105
0.11
0.115
0.12
0.115
0.105
0.11
0.15
0.19
0.21
0.25
0.295
0.35
0.415
0.525
0.615
0.67
0.735
0.81
0.89
0.975
1.055
1.11
1.17
1.27
1.385
1.505
1.585
1.575
1.535
1.445
1.41
1.4
1.44
1.46
1.48
1.495
1.525
1.57
1.605
1.6
1.54
1.41
1.22
0.995
0.74
0.45
0.17
0.01
-0.075
-0.135
-0.24
-0.325
-0.38
-0.37
-0.365
-0.36
-0.39
-0.445
-0.51
-0.515
-0.475
-0.41
-0.415
-0.47
-0.5
-0.49
-0.465
-0.455
-0.51
-0.6
-0.65
-0.645
-0.57
-0.525
-0.5
-0.535
-0.595
-0.655
-0.68
-0.67
-0.65
-0.63
-0.67
-0.685
-0.69
-0.67
-0.68
-0.705
-0.71
-0.71
-0.69
-0.645
-0.655
-0.675
-0.71
-0.745
-0.735
-0.68
-0.67
-0.66
-0.67
-0.67
-0.655
-0.625
-0.595
-0.59
-0.6
-0.605
-0.565
-0.475
-0.44
-0.445
-0.45
-0.46
-0.41
-0.36
-0.325
-0.3
-0.26
-0.255
-0.24
-0.23
-0.205
-0.175
-0.17
-0.185
-0.21
-0.17
-0.13
-0.095
-0.095
-0.14
-0.16
-0.165
-0.15
-0.125
-0.13
-0.135
-0.115
-0.1
-0.1
-0.105
-0.105
-0.115
-0.115
-0.11
-0.12
-0.125
-0.105
-0.09
-0.075
-0.065
-0.07
-0.08
-0.095
-0.135
-0.125
-0.125
-0.135
-0.125
-0.11
-0.09
-0.085
-0.11
-0.135
-0.14
-0.15
-0.13
-0.11
-0.09
-0.08
-0.09
-0.13
-0.145
-0.115
-0.095
-0.07
-0.055
-0.055
-0.04
-0.03
0.02
0.025
0.025
0.04
0.085
0.095
0.095
0.055
0.015
-0.005
0.0
0.025
0.05
0.045
0.01
-0.07
-0.12
-0.12
-0.09
-0.065
-0.065
-0.115
-0.14
-0.125
-0.095
-0.1
-0.11
-0.115
-0.12
-0.135
-0.155
-0.15
-0.14
-0.115
-0.105
-0.115
-0.125
-0.16
-0.165
-0.14
-0.12
-0.075
-0.065
-0.08
-0.085
-0.055
0.035
0.175
0.375
0.595
0.835
1.095
1.32
1.53
1.63
1.525
1.195
0.76
0.35
0.005
-0.16
-0.19
-0.19
-0.17
-0.195
-0.175
-0.165
-0.155
-0.16
-0.165
-0.16
-0.165
-0.16
-0.16
-0.18
-0.18
-0.175
-0.165
-0.15
-0.16
-0.185
-0.175
-0.16
-0.115
-0.1
-0.12
-0.145
-0.175
-0.14
-0.1
-0.095
-0.12
-0.145
-0.15
-0.15
-0.145
-0.135
-0.145
-0.125
-0.11
-0.095
-0.08
-0.08
-0.07
-0.095
-0.11
-0.11
-0.07
-0.04
-0.035
-0.05
-0.045
-0.035
0.0
0.04
0.05
0.02
0.005
0.015
0.045
0.08
0.095
0.115
0.135
0.155
0.185
0.2
0.19
0.185
0.18
0.18
0.195
0.23
0.25
0.245
0.24
0.255
0.265
0.27
0.25
0.225
0.21
0.195
0.195
0.175
0.16
0.11
0.09
0.08
0.095
0.095
0.09
0.045
-0.005
-0.045
-0.06
-0.05
-0.035
-0.04
-0.065
-0.095
-0.095
-0.065
-0.07
-0.105
-0.17
-0.2
-0.165
-0.14
-0.135
-0.145
-0.145
-0.15
-0.16
-0.19
-0.195
-0.2
-0.185
-0.145
-0.13
-0.12
-0.145
-0.18
-0.205
-0.19
-0.165
-0.135
-0.135
-0.14
-0.125
-0.105
-0.1
-0.115
-0.135
-0.145
-0.12
-0.1
-0.07
-0.04
-0.005
0.02
0.03
0.035
0.03
0.02
0.005
0.005
0.015
0.005
0.02
-0.005
-0.055
-0.115
-0.15
-0.155
-0.125
-0.115
-0.12
-0.15
-0.185
-0.19
-0.19
-0.185
-0.18
-0.18
-0.175
-0.195
-0.21
-0.22
-0.22
-0.205
-0.19
-0.145
-0.15
-0.155
-0.175
-0.19
-0.19
-0.185
-0.15
-0.13
-0.12
-0.09
-0.025
0.11
0.36
0.625
0.84
1.025
1.215
1.37
1.36
1.14
0.765
0.345
-0.025
-0.255
-0.32
-0.275
-0.27
-0.305
-0.315
-0.27
-0.22
-0.195
-0.195
-0.23
-0.255
-0.28
-0.265
-0.27
-0.28
-0.29
-0.305
-0.28
-0.265
-0.245
-0.235
-0.25
-0.265
-0.265
-0.27
-0.315
-0.305
-0.285
-0.25
-0.23
-0.22
-0.195
-0.19
-0.23
-0.25
-0.26
-0.235
-0.18
-0.15
-0.14
-0.165
-0.205
-0.23
-0.23
-0.185
-0.175
-0.185
-0.18
-0.17
-0.15
-0.125
-0.09
-0.1
-0.085
-0.065
-0.035
-0.025
-0.025
-0.045
-0.065
-0.045
-0.005
0.035
0.045
0.05
0.05
0.04
0.04
0.035
0.065
0.065
0.085
0.095
0.095
0.095
0.085
0.1
0.095
0.12
0.13
0.105
0.07
0.045
0.04
0.045
0.05
0.02
0.005
-0.015
-0.01
-0.005
-0.01
-0.045
-0.11
-0.14
-0.115
-0.07
-0.06
-0.095
-0.145
-0.165
-0.16
-0.16
-0.175
-0.185
-0.2
-0.195
-0.175
-0.17
-0.16
-0.16
-0.155
-0.17
-0.195
-0.17
-0.145
-0.125
-0.135
-0.155
-0.17
-0.17
-0.11
-0.1
-0.105
-0.12
-0.13
-0.155
-0.145
-0.14
-0.135
-0.16
-0.165
-0.145
-0.115
-0.11
-0.1
-0.12
-0.125
-0.1
-0.075
-0.045
-0.06
-0.075
-0.09
-0.06
0.0
0.035
0.09
0.075
0.05
0.035
0.05
0.06
0.035
0.0
0.0
0.005
0.01
-0.02
-0.065
-0.105
-0.13
-0.11
-0.085
-0.075
-0.07
-0.085
-0.115
-0.14
-0.15
-0.145
-0.125
-0.095
-0.04
0.005
0.07
0.11
0.12
0.145
0.2
0.3
0.395
0.485
0.565
0.61
0.62
0.65
0.695
0.76
0.85
0.985
1.12
1.275
1.48
1.69
1.9
2.065
2.145
2.135
1.94
1.535
1.015
0.5
0.19
0.02
-0.065
-0.175
-0.26
-0.32
-0.315
-0.285
-0.285
-0.29
-0.31
-0.35
-0.365
-0.375
-0.38
-0.375
-0.39
-0.385
-0.385
-0.37
-0.355
-0.365
-0.41
-0.42
-0.43
-0.385
-0.38
-0.395
-0.43
-0.455
-0.465
-0.44
-0.395
-0.375
-0.385
-0.42
-0.44
-0.435
-0.45
-0.46
-0.485
-0.5
-0.47
-0.465
-0.455
-0.45
-0.495
-0.515
-0.53
-0.51
-0.49
-0.475
-0.46
-0.46
-0.465
-0.455
-0.46
-0.46
-0.46
-0.47
-0.46
-0.41
-0.385
-0.38
-0.395
-0.395
-0.335
-0.295
-0.275
-0.28
-0.3
-0.3
-0.255
-0.225
-0.175
-0.16
-0.155
-0.165
-0.165
-0.175
-0.175
-0.16
-0.16
-0.14
-0.14
-0.135
-0.135
-0.145
-0.195
-0.205
-0.18
-0.15
-0.12
-0.115
-0.15
-0.19
-0.185
-0.165
-0.15
-0.155
-0.175
-0.19
-0.185
-0.185
-0.175
-0.145
-0.125
-0.135
-0.165
-0.22
-0.22
-0.195
-0.18
-0.195
-0.185
-0.165
-0.15
-0.145
-0.18
-0.2
-0.19
-0.16
-0.165
-0.16
-0.145
-0.14
-0.16
-0.165
-0.19
-0.185
-0.185
-0.15
-0.145
-0.145
-0.14
-0.13
-0.12
-0.12
-0.075
-0.03
-0.02
-0.035
-0.055
-0.05
-0.02
0.015
0.055
0.05
0.045
0.02
0.015
0.005
0.025
0.025
-0.005
-0.025
-0.045
-0.065
-0.075
-0.095
-0.115
-0.145
-0.16
-0.165
-0.15
-0.135
-0.145
-0.15
-0.16
-0.16
-0.155
-0.16
-0.155
-0.155
-0.15
-0.115
-0.11
-0.13
-0.185
-0.19
-0.155
-0.13
-0.115
-0.115
-0.135
-0.15
-0.125
-0.045
0.09
0.255
0.45
0.67
0.905
1.18
1.455
1.62
1.565
1.295
0.925
0.55
0.17
-0.105
-0.235
-0.245
-0.225
-0.21
-0.185
-0.17
-0.185
-0.195
-0.195
-0.19
-0.175
-0.15
-0.17
-0.195
-0.185
-0.175
-0.175
-0.18
-0.21
-0.2
-0.185
-0.18
-0.155
-0.155
-0.165
-0.165
-0.165
-0.155
-0.145
-0.16
-0.165
-0.155
-0.135
-0.105
-0.09
-0.085
-0.13
-0.17
-0.175
-0.13
-0.09
-0.11
-0.115
-0.11
-0.105
-0.06
-0.05
-0.03
-0.045
-0.045
-0.04
-0.03
-0.005
0.03
0.05
0.05
0.045
0.065
0.075
0.075
0.085
0.09
0.12
0.17
0.2
0.175
0.135
0.145
0.18
0.22
0.235
0.215
0.225
0.215
0.225
0.225
0.26
0.26
0.26
0.24
0.23
0.225
0.23
0.225
0.23
0.205
0.195
0.175
0.17
0.155
0.135
0.1
0.075
0.08
0.095
0.085
0.05
0.005
-0.025
-0.045
-0.005
0.0
0.005
-0.02
-0.02
-0.03
-0.03
-0.03
-0.07
-0.07
-0.06
-0.05
-0.06
-0.05
-0.05
-0.045
-0.05
-0.06
-0.05
-0.045
-0.055
-0.055
-0.04
-0.01
-0.005
-0.005
-0.025
-0.04
-0.03
-0.04
-0.035
-0.055
-0.035
-0.005
0.015
0.015
0.015
0.01
0.0
-0.005
-0.025
-0.015
0.01
0.04
0.02
0.025
0.025
0.04
0.08
0.11
0.1
0.1
0.115
0.16
0.18
0.165
0.12
0.085
0.085
0.095
0.105
0.1
0.07
0.025
-0.015
-0.025
-0.025
-0.01
-0.02
-0.03
-0.04
-0.06
-0.06
-0.06
-0.06
-0.075
-0.09
-0.065
-0.05
-0.045
-0.02
-0.01
-0.05
-0.11
-0.12
-0.09
-0.06
-0.05
-0.045
-0.06
-0.05
-0.04
-0.045
0.015
0.105
0.285
0.49
0.74
1.035
1.33
1.55
1.665
1.57
1.245
0.825
0.38
0.02
-0.185
-0.195
-0.16
-0.145
-0.16
-0.15
-0.085
-0.045
-0.05
-0.105
-0.13
-0.115
-0.07
-0.055
-0.05
-0.065
-0.04
-0.03
-0.015
-0.06
-0.12
-0.14
-0.105
-0.045
-0.02
-0.035
-0.09
-0.145
-0.165
-0.145
-0.12
-0.09
-0.075
-0.08
-0.07
-0.065
-0.05
-0.05
-0.075
-0.08
-0.045
0.005
0.035
0.025
-0.03
-0.045
-0.01
0.03
0.015
-0.03
-0.045
-0.01
0.01
0.015
0.03
0.06
0.06
0.065
0.055
0.065
0.095
0.165
0.185
0.17
0.14
0.115
0.145
0.2
0.295
0.345
0.355
0.355
0.345
0.315
0.265
0.245
0.24
0.24
0.255
0.24
0.24
0.23
0.19
0.2
0.22
0.2
0.165
0.105
0.09
0.09
0.11
0.085
0.035
-0.03
-0.06
-0.07
-0.085
-0.06
-0.025
-0.025
-0.07
-0.12
-0.135
-0.12
-0.07
-0.07
-0.085
-0.105
-0.13
-0.155
-0.185
-0.16
-0.125
-0.095
-0.08
-0.09
-0.105
-0.135
-0.16
-0.16
-0.145
-0.12
-0.105
-0.1
-0.095
-0.095
-0.075
-0.04
-0.06
-0.125
-0.165
-0.145
-0.11
-0.07
-0.07
-0.095
-0.085
-0.08
-0.065
-0.065
-0.075
-0.06
-0.06
-0.035
-0.005
0.02
0.035
0.01
0.025
0.06
0.125
0.175
0.215
0.21
0.2
0.215
0.275
0.34
0.365
0.4
0.455
0.53
0.595
0.635
0.65
0.665
0.715
0.805
0.91
0.985
1.02
1.04
1.1
1.19
1.27
1.31
1.285
1.21
1.13
1.07
1.045
1.025
1.01
0.99
0.96
0.91
0.855
0.805
0.77
0.74
0.705
0.665
0.68
0.71
0.74
0.71
0.645
0.565
0.455
0.345
0.21
0.065
-0.105
-0.225
-0.325
-0.4
-0.455
-0.505
-0.505
-0.49
-0.475
-0.47
-0.515
-0.565
-0.605
-0.585
-0.59
-0.595
-0.595
-0.605
-0.605
-0.605
-0.645
-0.665
-0.685
-0.705
-0.725
-0.72
-0.7
-0.665
-0.665
-0.685
-0.71
-0.73
-0.73
-0.74
-0.76
-0.79
-0.8
-0.8
-0.78
-0.775
-0.81
-0.84
-0.845
-0.85
-0.825
-0.83
-0.835
-0.845
-0.89
-0.885
-0.865
-0.83
-0.8
-0.795
-0.795
-0.79
-0.77
-0.76
-0.755
-0.77
-0.77
-0.73
-0.7
-0.66
-0.62
-0.605
-0.595
-0.58
-0.56
-0.525
-0.505
-0.48
-0.44
-0.4
-0.34
-0.29
-0.27
-0.28
-0.305
-0.295
-0.27
-0.25
-0.22
-0.22
-0.21
-0.215
-0.23
-0.25
-0.265
-0.28
-0.265
-0.245
-0.215
-0.16
-0.16
-0.18
-0.205
-0.22
-0.23
-0.21
-0.23
-0.245
-0.255
-0.245
-0.22
-0.215
-0.21
-0.22
-0.25
-0.255
-0.26
-0.235
-0.2
-0.21
-0.22
-0.21
-0.205
-0.17
-0.165
-0.195
-0.21
-0.22
-0.205
-0.175
-0.18
-0.2
-0.2
-0.2
-0.165
-0.145
-0.175
-0.19
-0.22
-0.2
-0.185
-0.175
-0.17
-0.18
-0.2
-0.195
-0.175
-0.145
-0.145
-0.16
-0.17
-0.17
-0.16
-0.155
-0.155
-0.175
-0.185
-0.165
-0.16
-0.145
-0.165
-0.195
-0.21
-0.205
-0.155
-0.1
-0.065
-0.08
-0.105
-0.14
-0.14
-0.12
-0.11
-0.135
-0.12
-0.11
-0.065
-0.025
0.0
-0.01
-0.055
-0.075
-0.055
-0.01
0.01
0.01
-0.015
-0.015
0.01
0.015
-0.015
-0.05
-0.085
-0.11
-0.12
-0.12
-0.105
-0.12
-0.13
-0.155
-0.15
-0.135
-0.145
-0.175
-0.22
-0.23
-0.2
-0.15
-0.145
-0.18
-0.225
-0.255
-0.245
-0.24
-0.215
-0.23
-0.24
-0.2
-0.145
-0.105
-0.085
-0.125
-0.2
-0.25
-0.225
-0.17
-0.07
0.045
0.2
0.395
0.62
0.88
1.12
1.295
1.41
1.415
1.255
0.95
0.56
0.145
-0.14
-0.25
-0.245
-0.225
-0.255
-0.3
-0.32
-0.3
-0.26
-0.23
-0.225
-0.245
-0.245
-0.26
-0.24
-0.235
-0.24
-0.235
-0.245
-0.28
-0.305
-0.285
-0.275
-0.265
-0.26
-0.255
-0.23
-0.24
-0.26
-0.265
-0.265
-0.27
-0.275
-0.26
-0.235
-0.225
-0.225
-0.24
-0.205
-0.17
-0.18
-0.2
-0.23
-0.245
-0.21
-0.16
-0.16
-0.17
-0.195
-0.18
-0.17
-0.145
-0.135
-0.12
-0.1
-0.095
-0.105
-0.105
-0.09
-0.07
-0.035
0.01
0.0
-0.02
-0.025
0.01
0.03
0.05
0.055
0.075
0.105
0.12
0.14
0.165
0.17
0.185
0.185
0.17
0.17
0.18
0.205
0.24
0.24
0.26
0.225
0.22
0.215
0.22
0.24
0.23
0.22
0.21
0.23
0.235
0.235
0.19
0.16
0.14
0.145
0.135
0.1
0.035
0.01
0.02
0.03
0.025
0.01
-0.025
-0.045
-0.055
-0.065
-0.045
-0.065
-0.08
-0.11
-0.135
-0.15
-0.145
-0.145
-0.15
-0.16
-0.145
-0.14
-0.1
-0.08
-0.095
-0.12
-0.145
-0.125
-0.115
-0.115
-0.14
-0.145
-0.13
-0.105
-0.1
-0.12
-0.14
-0.135
-0.135
-0.135
-0.12
-0.11
-0.095
-0.1
-0.12
-0.1
-0.095
-0.095
-0.12
-0.16
-0.115
-0.065
-0.025
-0.035
-0.03
-0.03
-0.035
-0.045
-0.025
-0.02
-0.01
0.015
0.04
0.06
0.065
0.07
0.035
0.025
0.015
0.03
0.035
0.025
0.035
0.005
-0.035
-0.065
-0.065
-0.07
-0.12
-0.145
-0.135
-0.105
-0.1
-0.11
-0.14
-0.13
-0.13
-0.13
-0.115
-0.11
-0.145
-0.22
-0.28
-0.245
-0.16
-0.13
-0.125
-0.12
-0.1
-0.075
-0.07
-0.09
-0.12
-0.13
-0.16
-0.165
-0.125
-0.05
0.035
0.14
0.325
0.59
0.905
1.175
1.39
1.51
1.52
1.335
0.99
0.63
0.22
-0.13
-0.275
-0.28
-0.235
-0.245
-0.27
-0.285
-0.245
-0.165
-0.105
-0.105
-0.15
-0.185
-0.19
-0.175
-0.14
-0.145
-0.165
-0.15
-0.125
-0.095
-0.07
-0.075
-0.155
-0.265
-0.32
-0.28
-0.18
-0.12
-0.075
-0.06
-0.07
-0.085
-0.1
-0.095
-0.08
-0.1
-0.135
-0.19
-0.195
-0.14
-0.085
-0.05
-0.03
-0.025
-0.03
-0.045
-0.085
-0.085
-0.055
-0.06
-0.04
-0.035
-0.025
0.0
0.035
0.05
0.06
0.07
0.065
0.065
0.055
0.055
0.07
0.11
0.175
0.205
0.21
0.195
0.19
0.185
0.17
0.16
0.165
0.195
0.23
0.245
0.24
0.21
0.175
0.18
0.22
0.225
0.22
0.185
0.17
0.155
0.15
0.165
0.16
0.145
0.11
0.075
0.065
0.07
0.07
0.045
-0.01
-0.045
-0.05
-0.04
-0.03
-0.045
-0.06
-0.085
-0.06
-0.02
-0.02
-0.045
-0.065
-0.05
-0.045
-0.085
-0.125
-0.125
-0.105
-0.045
0.01
0.025
0.025
0.005
-0.01
-0.045
-0.06
-0.085
-0.075
-0.025
0.0
0.035
0.055
0.04
0.04
0.02
0.0
-0.025
-0.045
-0.02
0.0
0.005
0.0
0.0
0.005
-0.01
-0.02
0.0
0.04
0.085
0.1
0.11
0.1
0.075
0.085
0.115
0.145
0.16
0.17
0.18
0.175
0.19
0.2
0.195
0.18
0.165
0.17
0.175
0.205
0.24
0.285
0.33
0.395
0.465
0.525
0.52
0.545
0.605
0.705
0.8
0.87
0.955
1.04
1.13
1.19
1.245
1.32
1.39
1.445
1.49
1.49
1.455
1.41
1.37
1.315
1.245
1.2
1.165
1.125
1.085
1.06
1.06
1.07
1.095
1.115
1.1
1.08
0.995
0.905
0.8
0.625
0.425
0.17
-0.035
-0.13
-0.175
-0.22
-0.275
-0.33
-0.37
-0.365
-0.365
-0.39
-0.425
-0.48
-0.51
-0.47
-0.46
-0.445
-0.45
-0.465
-0.49
-0.495
-0.52
-0.535
-0.54
-0.545
-0.525
-0.53
-0.57
-0.61
-0.63
-0.63
-0.61
-0.605
-0.595
-0.595
-0.625
-0.665
-0.685
-0.705
-0.675
-0.645
-0.66
-0.68
-0.725
-0.715
-0.725
-0.725
-0.74
-0.77
-0.785
-0.765
-0.73
-0.7
-0.715
-0.755
-0.785
-0.745
-0.72
-0.705
-0.715
-0.71
-0.675
-0.63
-0.58
-0.54
-0.55
-0.56
-0.545
-0.5
-0.445
-0.425
-0.405
-0.39
-0.35
-0.29
-0.27
-0.25
-0.245
-0.225
-0.23
-0.215
-0.215
-0.21
-0.175
-0.155
-0.16
-0.165
-0.155
-0.14
-0.125
-0.125
-0.145
-0.145
-0.15
-0.15
-0.155
-0.165
-0.18
-0.18
-0.16
-0.15
-0.16
-0.185
-0.18
-0.18
-0.16
-0.135
-0.115
-0.13
-0.125
-0.12
-0.12
-0.135
-0.17
-0.17
-0.125
-0.11
-0.115
-0.14
-0.15
-0.14
-0.115
-0.09
-0.085
-0.105
-0.17
-0.205
-0.165
-0.115
-0.065
-0.025
0.0
-0.035
-0.07
-0.095
-0.095
-0.075
-0.08
-0.095
-0.1
-0.09
-0.06
-0.02
0.01
0.0
-0.025
-0.045
-0.06
-0.03
0.02
0.075
0.1
0.115
0.085
0.06
0.03
0.02
0.045
0.07
0.07
0.055
0.045
0.015
-0.035
-0.095
-0.095
-0.105
-0.12
-0.155
-0.145
-0.13
-0.11
-0.105
-0.08
-0.08
-0.075
-0.1
-0.12
-0.14
-0.125
-0.095
-0.105
-0.165
-0.185
-0.155
-0.11
-0.12
-0.16
-0.17
-0.125
-0.05
0.05
0.175
0.31
0.53
0.81
1.1
1.33
1.5
1.555
1.435
1.125
0.695
0.235
-0.115
-0.285
-0.305
-0.305
-0.27
-0.24
-0.22
-0.235
-0.175
-0.11
-0.1
-0.135
-0.185
-0.2
-0.17
-0.14
-0.12
-0.12
-0.17
-0.2
-0.21
-0.17
-0.135
-0.16
-0.215
-0.205
-0.155
-0.13
-0.11
-0.13
-0.145
-0.15
-0.125
-0.125
-0.135
-0.155
-0.155
-0.125
-0.11
-0.095
-0.08
-0.065
-0.07
-0.095
-0.105
-0.125
-0.11
-0.09
-0.09
-0.09
-0.065
-0.005
0.07
0.09
0.085
0.065
0.055
0.065
0.06
0.09
0.09
0.12
0.165
0.185
0.19
0.2
0.22
0.23
0.22
0.245
0.26
0.25
0.24
0.26
0.28
0.29
0.31
0.3
0.305
0.29
0.255
0.22
0.2
0.18
0.18
0.14
0.15
0.125
0.13
0.115
0.075
0.03
-0.02
-0.045
-0.06
-0.07
-0.075
-0.07
-0.065
-0.08
-0.095
-0.1
-0.115
-0.14
-0.14
-0.145
-0.145
-0.12
-0.125
-0.105
-0.115
-0.09
-0.06
-0.055
-0.115
-0.175
-0.19
-0.135
-0.105
-0.12
-0.13
-0.145
-0.14
-0.12
-0.105
-0.1
-0.12
-0.13
-0.14
-0.145
-0.14
-0.14
-0.15
-0.13
-0.125
-0.14
-0.095
-0.09
-0.08
-0.07
-0.035
-0.005
0.03
-0.01
-0.08
-0.085
-0.03
0.045
0.075
0.06
0.035
0.04
0.05
0.055
0.04
0.01
-0.02
-0.02
-0.005
0.005
0.005
-0.03
-0.09
-0.125
-0.135
-0.13
-0.125
-0.145
-0.165
-0.185
-0.17
-0.18
-0.17
-0.155
-0.16
-0.165
-0.165
-0.16
-0.155
-0.18
-0.215
-0.215
-0.195
-0.185
-0.175
-0.17
-0.16
-0.175
-0.17
-0.13
-0.045
0.085
0.225
0.44
0.68
0.92
1.135
1.315
1.43
1.36
1.06
0.605
0.18
-0.11
-0.23
-0.265
-0.27
-0.28
-0.28
-0.26
-0.225
-0.22
-0.235
-0.265
-0.245
-0.235
-0.235
-0.255
-0.27
-0.27
-0.265
-0.22
-0.175
-0.15
-0.13
-0.15
-0.15
-0.17
-0.2
-0.225
-0.22
-0.2
-0.195
-0.19
-0.2
-0.19
-0.185
-0.2
-0.2
-0.19
-0.18
-0.18
-0.195
-0.19
-0.155
-0.115
-0.125
-0.125
-0.135
-0.14
-0.125
-0.09
-0.08
-0.085
-0.06
-0.03
-0.01
-0.045
-0.09
-0.095
-0.055
-0.005
0.05
0.065
0.045
0.055
0.075
0.08
0.075
0.095
0.105
0.115
0.105
0.105
0.11
0.1
0.075
0.07
0.095
0.11
0.125
0.105
0.085
0.075
0.07
0.075
0.09
0.07
0.03
-0.015
-0.03
-0.04
-0.045
-0.045
-0.07
-0.11
-0.135
-0.135
-0.07
-0.05
-0.075
-0.125
-0.16
-0.175
-0.17
-0.135
-0.13
-0.12
-0.12
-0.115
-0.13
-0.16
-0.175
-0.165
-0.165
-0.145
-0.135
-0.125
-0.13
-0.15
-0.175
-0.175
-0.145
-0.115
-0.07
-0.07
-0.105
-0.145
-0.15
-0.11
-0.08
-0.075
-0.12
-0.14
-0.13
-0.11
-0.1
-0.095
-0.105
-0.11
-0.1
-0.095
-0.075
-0.065
-0.06
-0.035
-0.01
0.005
-0.01
0.0
0.025
0.035
0.055
0.04
0.04
0.02
-0.005
-0.005
0.015
0.015
-0.01
-0.05
-0.05
-0.07
-0.08
-0.085
-0.07
-0.045
-0.025
-0.01
0.03
0.075
0.12
0.135
0.215
0.32
0.44
0.535
0.58
0.595
0.64
0.695
0.78
0.845
0.91
0.97
1.01
1.085
1.175
1.25
1.265
1.295
1.355
1.405
1.48
1.55
1.62
1.69
1.765
1.81
1.745
1.515
1.175
0.845
0.54
0.275
0.075
-0.065
-0.145
-0.255
-0.285
-0.31
-0.34
-0.34
-0.385
-0.43
-0.45
-0.43
-0.39
-0.39
-0.41
-0.425
-0.415
-0.43
-0.43
-0.45
-0.47
-0.485
-0.475
-0.455
-0.455
-0.48
-0.545
-0.565
-0.555
-0.525
-0.505
-0.52
-0.565
-0.595
-0.605
-0.595
-0.585
-0.61
-0.625
-0.645
-0.64
-0.62
-0.605
-0.615
-0.64
-0.655
-0.655
-0.65
-0.65
-0.675
-0.705
-0.72
-0.7
-0.665
-0.65
-0.65
-0.65
-0.65
-0.63
-0.605
-0.605
-0.6
-0.595
-0.59
-0.58
-0.56
-0.52
-0.505
-0.5
-0.5
-0.48
-0.435
-0.385
-0.375
-0.375
-0.345
-0.31
-0.265
-0.23
-0.22
-0.235
-0.215
-0.2
-0.17
-0.14
-0.14
-0.16
-0.165
-0.175
-0.175
-0.18
-0.155
-0.15
-0.155
-0.16
-0.15
-0.135
-0.145
-0.135
-0.16
-0.16
-0.175
-0.17
-0.17
-0.165
-0.165
-0.17
-0.17
-0.165
-0.14
-0.13
-0.13
-0.13
-0.13
-0.11
-0.1
-0.115
-0.13
-0.115
-0.11
-0.105
-0.115
-0.095
-0.11
-0.11
-0.12
-0.11
-0.085
-0.085
-0.075
-0.07
-0.085
-0.085
-0.085
-0.065
-0.055
-0.035
-0.035
-0.015
0.02
0.045
0.035
0.03
0.035
0.055
0.065
0.065
0.065
0.07
0.09
0.12
0.12
0.105
0.07
0.065
0.06
0.06
0.035
-0.005
-0.04
-0.02
0.01
0.0
-0.03
-0.06
-0.08
-0.075
-0.055
-0.025
-0.015
-0.025
-0.025
-0.035
-0.025
-0.02
-0.01
-0.02
-0.015
-0.02
-0.03
-0.005
-0.005
-0.015
-0.025
0.005
0.095
0.21
0.36
0.55
0.79
1.07
1.34
1.6
1.735
1.585
1.205
0.75
0.305
-0.03
-0.165
-0.13
-0.095
-0.09
-0.095
-0.065
-0.045
-0.065
-0.07
-0.065
-0.07
-0.04
-0.04
-0.075
-0.1
-0.105
-0.085
-0.05
-0.04
-0.05
-0.06
-0.065
-0.07
-0.055
-0.065
-0.05
-0.07
-0.06
-0.045
-0.015
0.0
-0.025
-0.025
-0.03
-0.02
0.015
0.035
0.005
-0.045
-0.055
-0.03
0.025
0.075
0.065
0.05
0.03
0.05
0.09
0.11
0.095
0.1
0.11
0.115
0.15
0.175
0.175
0.18
0.205
0.225
0.24
0.24
0.235
0.23
0.23
0.27
0.3
0.31
0.305
0.285
0.305
0.325
0.365
0.34
0.315
0.29
0.31
0.31
0.325
0.31
0.27
0.24
0.24
0.23
0.22
0.2
0.155
0.12
0.11
0.115
0.105
0.075
0.035
0.025
0.04
0.04
0.03
0.005
-0.02
-0.035
-0.015
0.0
0.0
-0.005
-0.025
-0.04
-0.025
-0.005
0.005
0.0
-0.015
-0.015
-0.005
0.005
0.01
0.025
0.02
0.01
0.0
-0.01
-0.005
-0.02
-0.02
-0.03
-0.04
-0.015
0.03
0.05
0.035
0.03
0.04
0.07
0.1
0.11
0.105
0.095
0.105
0.125
0.15
0.185
0.2
0.26
0.37
0.435
0.405
0.325
0.255
0.245
0.26
0.23
0.105
0.0
-0.025
-0.025
-0.015
-0.05
-0.06
-0.075
-0.08
-0.085
-0.065
-0.025
-0.005
-0.01
-0.095
-0.16
-0.16
-0.11
-0.085
-0.07
-0.085
-0.09
-0.115
-0.095
-0.06
-0.055
-0.055
-0.045
-0.05
-0.05
-0.02
0.06
0.18
0.35
0.55
0.84
1.13
1.375
1.575
1.54
1.225
0.73
0.285
-0.03
-0.14
-0.165
-0.145
-0.11
-0.08
-0.06
-0.08
-0.105
-0.115
-0.11
-0.11
-0.11
-0.11
-0.14
-0.125
-0.105
-0.085
-0.08
-0.09
-0.105
-0.115
-0.115
-0.075
-0.065
-0.055
-0.06
-0.06
-0.04
-0.035
-0.02
-0.065
-0.055
-0.055
-0.025
0.0
0.0
-0.01
-0.035
-0.02
-0.015
0.02
0.03
0.005
-0.02
-0.005
-0.005
0.015
0.035
0.035
0.015
0.03
0.07
0.105
0.125
0.12
0.11
0.125
0.145
0.165
0.18
0.18
0.175
0.165
0.185
0.18
0.195
0.175
0.18
0.185
0.2
0.22
0.23
0.22
0.22
0.215
0.2
0.215
0.205
0.16
0.13
0.11
0.125
0.125
0.11
0.08
0.055
0.045
0.045
0.04
0.055
0.035
0.015
-0.01
-0.01
-0.005
-0.02
-0.04
-0.07
-0.06
-0.035
0.0
0.015
-0.015
-0.055
-0.08
-0.075
-0.065
-0.065
-0.065
-0.075
-0.055
-0.035
-0.01
-0.02
-0.065
-0.065
-0.055
-0.03
-0.025
-0.035
-0.04
-0.035
-0.01
0.005
0.015
-0.005
-0.015
-0.01
-0.005
0.005
0.035
0.045
0.04
0.05
0.07
0.08
0.095
0.115
0.13
0.145
0.165
0.185
0.17
0.17
0.14
0.15
0.16
0.15
0.14
0.12
0.08
0.055
0.045
0.035
0.035
0.03
0.0
-0.045
-0.065
-0.055
-0.04
-0.03
-0.05
-0.065
-0.06
-0.04
-0.035
-0.045
-0.07
-0.08
-0.065
-0.04
-0.025
-0.03
-0.065
-0.07
-0.06
-0.05
-0.04
-0.05
-0.05
0.04
0.16
0.34
0.545
0.76
0.99
1.26
1.525
1.75
1.905
1.895
1.685
1.345
0.985
0.64
0.345
0.175
0.055
-0.03
-0.07
-0.1
-0.09
-0.085
-0.095
-0.1
-0.11
-0.105
-0.09
-0.105
-0.125
-0.16
-0.145
-0.125
-0.1
-0.11
-0.125
-0.16
-0.15
-0.135
-0.11
-0.095
-0.105
-0.115
-0.12
-0.105
-0.07
-0.045
-0.06
-0.085
-0.085
-0.1
-0.075
-0.075
-0.11
-0.13
-0.14
-0.13
-0.105
-0.085
-0.095
-0.1
-0.1
-0.07
-0.06
-0.06
-0.09
-0.085
-0.07
-0.03
0.005
0.01
-0.01
-0.02
-0.025
-0.01
0.0
-0.005
-0.005
-0.01
-0.005
0.0
0.03
0.04
0.005
-0.005
0.035
0.08
0.13
0.145
0.105
0.06
0.04
0.04
0.07
0.075
0.075
0.075
0.095
0.13
0.175
0.19
0.16
0.125
0.11
0.105
0.085
0.08
0.085
0.085
0.09
0.09
0.105
0.09
0.04
-0.01
-0.035
-0.055
-0.055
-0.06
-0.06
-0.065
-0.035
-0.025
-0.005
-0.025
-0.06
-0.04
-0.01
0.025
0.03
-0.005
-0.065
-0.07
-0.03
-0.01
-0.03
-0.05
-0.07
-0.06
-0.05
-0.055
-0.06
-0.065
-0.085
-0.1
-0.09
-0.08
-0.055
-0.045
-0.03
-0.025
-0.005
0.01
0.025
0.015
-0.035
-0.09
-0.085
-0.06
-0.015
-0.015
-0.02
-0.03
-0.01
0.02
0.045
0.035
0.025
0.01
0.045
0.08
0.11
0.135
0.14
0.105
0.1
0.1
0.12
0.14
0.14
0.115
0.12
0.13
0.14
0.11
0.04
-0.01
-0.035
-0.025
0.0
0.0
-0.055
-0.115
-0.125
-0.05
-0.015
-0.015
-0.065
-0.095
-0.075
-0.025
0.0
-0.02
-0.08
-0.12
-0.13
-0.105
-0.075
-0.1
-0.105
-0.12
-0.095
-0.06
-0.02
0.015
0.065
0.175
0.31
0.495
0.755
1.01
1.225
1.415
1.525
1.485
1.255
0.885
0.47
0.075
-0.16
-0.235
-0.2
-0.17
-0.195
-0.22
-0.2
-0.145
-0.105
-0.08
-0.1
-0.12
-0.135
-0.145
-0.115
-0.08
-0.085
-0.125
-0.135
-0.1
-0.07
-0.08
-0.12
-0.145
-0.125
-0.1
-0.07
-0.075
-0.08
-0.09
-0.09
-0.09
-0.095
-0.085
-0.09
-0.11
-0.115
-0.1
-0.085
-0.08
-0.095
-0.115
-0.105
-0.07
-0.04
-0.02
-0.04
-0.055
-0.065
-0.06
-0.035
-0.005
-0.015
-0.02
-0.005
0.015
0.02
0.02
0.02
0.035
0.065
0.09
0.11
0.12
0.12
0.125
0.12
0.135
0.17
0.19
0.185
0.16
0.15
0.145
0.19
0.2
0.175
0.155
0.175
0.18
0.195
0.18
0.175
0.15
0.135
0.16
0.175
0.165
0.155
0.135
0.105
0.09
0.08
0.06
0.05
0.015
-0.015
-0.015
-0.015
-0.025
-0.055
-0.08
-0.095
-0.085
-0.06
-0.075
-0.09
-0.105
-0.11
-0.095
-0.1
-0.09
-0.105
-0.105
-0.105
-0.11
-0.095
-0.08
-0.1
-0.115
-0.11
-0.1
-0.08
-0.065
-0.05
-0.05
-0.04
-0.03
-0.035
-0.03
-0.055
-0.07
-0.075
-0.04
0.0
0.02
0.02
0.0
-0.005
-0.005
0.005
0.01
-0.005
-0.015
0.02
0.04
0.075
0.065
0.055
0.07
0.075
0.1
0.11
0.08
0.045
0.06
0.07
0.09
0.12
0.1
0.065
0.035
-0.005
-0.015
-0.015
-0.03
-0.05
-0.07
-0.08
-0.085
-0.09
-0.105
-0.135
-0.135
-0.14
-0.13
-0.12
-0.135
-0.13
-0.14
-0.125
-0.11
-0.1
-0.095
-0.105
-0.125
-0.125
-0.11
-0.1
-0.07
-0.09
-0.1
-0.08
-0.025
0.075
0.21
0.375
0.57
0.81
1.075
1.335
1.51
1.62
1.55
1.31
0.96
0.58
0.21
-0.115
-0.25
-0.265
-0.225
-0.205
-0.19
-0.165
-0.125
-0.095
-0.08
-0.095
-0.11
-0.15
-0.16
-0.155
-0.145
-0.13
-0.125
-0.13
-0.15
-0.16
-0.145
-0.12
-0.11
-0.13
-0.14
-0.14
-0.125
-0.11
-0.135
-0.155
-0.16
-0.125
-0.095
-0.09
-0.085
-0.11
-0.125
-0.12
-0.1
-0.075
-0.075
-0.09
-0.095
-0.11
-0.095
-0.055
-0.045
-0.06
-0.07
-0.07
-0.055
-0.02
-0.01
-0.02
-0.015
-0.005
0.045
0.08
0.105
0.08
0.035
0.01
0.02
0.065
0.11
0.14
0.135
0.125
0.115
0.13
0.15
0.155
0.145
0.17
0.175
0.175
0.175
0.175
0.17
0.16
0.175
0.19
0.185
0.165
0.13
0.12
0.115
0.13
0.12
0.085
0.05
0.045
0.045
0.035
0.03
0.005
-0.03
-0.025
0.01
0.005
-0.02
-0.065
-0.1
-0.115
-0.105
-0.075
-0.085
-0.115
-0.12
-0.125
-0.13
-0.12
-0.115
-0.13
-0.165
-0.18
-0.15
-0.09
-0.09
-0.155
-0.17
-0.145
-0.115
-0.115
-0.115
-0.15
-0.175
-0.155
-0.13
-0.085
-0.065
-0.085
-0.12
-0.13
-0.12
-0.095
-0.105
-0.105
-0.08
-0.055
-0.05
-0.03
-0.04
-0.05
-0.04
-0.025
0.005
0.01
0.0
-0.015
-0.01
-0.005
0.0
-0.005
-0.025
-0.05
-0.075
-0.105
-0.105
-0.115
-0.13
-0.16
-0.205
-0.235
-0.235
-0.205
-0.19
-0.195
-0.205
-0.22
-0.22
-0.225
-0.23
-0.265
-0.265
-0.235
-0.215
-0.2
-0.21
-0.235
-0.225
-0.16
-0.065
0.0
0.02
0.025
0.06
0.155
0.295
0.47
0.665
0.87
1.14
1.415
1.68
1.885
2.01
1.93
1.645
1.22
0.755
0.335
0.06
-0.085
-0.18
-0.225
-0.285
-0.32
-0.34
-0.355
-0.345
-0.34
-0.335
-0.32
-0.355
-0.39
-0.415
-0.395
-0.35
-0.32
-0.335
-0.38
-0.42
-0.44
-0.435
-0.44
-0.425
-0.435
-0.415
-0.415
-0.41
-0.4
-0.41
-0.45
-0.445
-0.41
-0.395
-0.395
-0.42
-0.455
-0.45
-0.445
-0.43
-0.43
-0.455
-0.465
-0.47
-0.465
-0.48
-0.465
-0.425
-0.425
-0.445
-0.455
-0.435
-0.4
-0.4
-0.44
-0.45
-0.44
-0.43
-0.44
-0.445
-0.45
-0.43
-0.395
-0.36
-0.325
-0.35
-0.4
-0.435
-0.415
-0.36
-0.295
-0.26
-0.27
-0.285
-0.32
-0.335
-0.325
-0.295
-0.275
-0.255
-0.225
-0.21
-0.22
-0.22
-0.26
-0.295
-0.3
-0.29
-0.275
-0.32
-0.36
-0.37
-0.32
-0.26
-0.245
-0.255
-0.305
-0.335
-0.34
-0.34
-0.315
-0.3
-0.305
-0.295
-0.29
-0.285
-0.31
-0.345
-0.37
-0.32
-0.26
-0.21
-0.235
-0.3
-0.35
-0.355
-0.345
-0.34
-0.35
-0.38
-0.385
-0.34
-0.25
-0.155
-0.09
-0.08
-0.115
-0.21
-0.29
-0.35
-0.34
-0.245
-0.205
-0.23
-0.295
-0.285
-0.21
-0.11
-0.055
-0.06
-0.065
-0.025
0.06
0.15
0.2
0.225
0.28
0.395
0.54
0.66
0.735
0.76
0.79
0.82
0.86
0.96
1.035
1.085
1.12
1.1
1.1
1.06
0.98
0.845
0.77
0.755
0.74
0.68
0.595
0.535
0.51
0.535
0.575
0.595
0.61
0.615
0.6
0.62
0.635
0.59
0.47
0.34
0.265
0.2
0.085
-0.09
-0.29
-0.445
-0.535
-0.51
-0.475
-0.5
-0.565
-0.58
-0.54
-0.545
-0.63
-0.785
-0.885
-0.915
-0.94
-0.945
-0.925
-0.88
-0.87
-0.845
-0.785
-0.715
-0.745
-0.87
-0.985
-1.005
-0.95
-0.9
-0.885
-0.88
-0.92
-0.995
-1.09
-1.135
-1.1
-1.025
-1.02
-1.025
-1.02
-1.01
-0.995
-1.005
-1.0
-1.0
-1.04
-1.07
-1.085
-1.08
-1.055
-1.01
-0.98
-0.995
-1.04
-1.075
-1.04
-0.985
-0.925
-0.89
-0.855
-0.865
-0.89
-0.9
-0.83
-0.735
-0.685
-0.695
-0.735
-0.71
-0.64
-0.575
-0.57
-0.575
-0.58
-0.57
-0.555
-0.565
-0.56
-0.535
-0.475
-0.455
-0.415
-0.395
-0.425
-0.49
-0.555
-0.57
-0.52
-0.435
-0.39
-0.375
-0.4
-0.405
-0.405
-0.38
-0.37
-0.385
-0.49
-0.565
-0.545
-0.46
-0.405
-0.4
-0.405
-0.41
-0.415
-0.42
-0.385
-0.385
-0.4
-0.425
-0.465
-0.475
-0.455
-0.415
-0.41
-0.405
-0.405
-0.405
-0.375
-0.38
-0.405
-0.415
-0.39
-0.365
-0.34
-0.365
-0.4
-0.435
-0.44
-0.43
-0.395
-0.365
-0.38
-0.385
-0.37
-0.375
-0.385
-0.4
-0.43
-0.435
-0.445
-0.435
-0.4
-0.37
-0.38
-0.4
-0.41
-0.39
-0.39
-0.41
-0.42
-0.395
-0.34
-0.31
-0.305
-0.31
-0.32
-0.315
-0.29
-0.27
-0.25
-0.245
-0.23
-0.22
-0.22
-0.22
-0.245
-0.27
-0.295
-0.315
-0.345
-0.36
-0.4
-0.43
-0.44
-0.435
-0.445
-0.44
-0.41
-0.415
-0.445
-0.455
-0.45
-0.42
-0.4
-0.425
-0.45
-0.485
-0.465
-0.44
-0.44
-0.425
-0.435
-0.44
-0.44
-0.425
-0.4
-0.4
-0.42
-0.44
-0.395
-0.295
-0.16
-0.005
0.165
0.34
0.555
0.775
0.985
1.155
1.215
1.07
0.765
0.38
0.025
-0.255
-0.375
-0.415
-0.425
-0.455
-0.465
-0.465
-0.455
-0.44
-0.45
-0.455
-0.46
-0.465
-0.485
-0.495
-0.495
-0.48
-0.47
-0.42
-0.42
-0.43
-0.445
-0.455
-0.455
-0.46
-0.47
-0.475
-0.485
-0.47
-0.465
-0.465
-0.475
-0.47
-0.46
-0.445
-0.415
-0.425
-0.425
-0.425
-0.42
-0.42
-0.425
-0.42
-0.435
-0.415
-0.395
-0.38
-0.36
-0.35
-0.37
-0.395
-0.405
-0.4
-0.38
-0.36
-0.36
-0.34
-0.315
-0.295
-0.27
-0.26
-0.275
-0.29
-0.265
-0.245
-0.225
-0.215
-0.22
-0.215
-0.195
-0.16
-0.16
-0.165
-0.175
-0.175
-0.145
-0.135
-0.125
-0.145
-0.13
-0.13
-0.075
-0.075
-0.075
-0.085
-0.1
-0.095
-0.07
-0.08
-0.085
-0.09
-0.095
-0.11
-0.105
-0.105
-0.125
-0.165
-0.225
-0.275
-0.3
-0.29
-0.295
-0.28
-0.305
-0.32
-0.33
-0.33
-0.34
-0.365
-0.405
-0.405
-0.385
-0.33
-0.265
-0.25
-0.29
-0.345
-0.385
-0.39
-0.375
-0.355
-0.365
-0.355
-0.34
-0.325
-0.32
-0.335
-0.375
-0.395
-0.4
-0.385
-0.35
-0.32
-0.315
-0.31
-0.325
-0.35
-0.36
-0.355
